date,raw_close,adjusted_close,volume
2015-01-02,49.72,,224441.0
2015-01-05,47.67,,591653.0
2015-01-06,46.98,,287635.0
2015-01-07,47.35,,261375.0
2015-01-08,49.18,,267005.0
2015-01-09,48.54,,224473.0
2015-01-12,48.44,,214964.0
2015-01-13,48.24,,276229.0
2015-01-14,47.67,,222631.0
2015-01-15,46.85,,302068.0
2015-01-16,47.54,,153177.0
2015-01-20,47.28,,198642.0
2015-01-21,47.37,,42747.0
2015-01-22,47.78,,406943.0
2015-01-23,46.83,,236880.0
2015-01-26,47.12,,291952.0
2015-01-27,46.24,,509451.0
2015-01-28,45.44,,364827.0
2015-01-29,46.35,,251171.0
2015-01-30,46.46,,380695.0
2015-02-02,46.89,,524866.0
2015-02-03,46.82,,335186.0
2015-02-04,46.57,,406510.0
2015-02-05,47.16,,389875.0
2015-02-06,47.68,,927279.0
2015-02-09,47.0,,621998.0
2015-02-10,47.08,,530141.0
2015-02-11,47.03,,455274.0
2015-02-12,47.42,,441853.0
2015-02-13,47.91,,132336.0
2015-02-17,48.6,,288132.0
2015-02-18,49.18,,339522.0
2015-02-19,49.19,,221878.0
2015-02-20,49.52,,271367.0
2015-02-23,49.62,,167535.0
2015-02-24,49.65,,238945.0
2015-02-25,49.2,,314337.0
2015-02-26,49.61,,168965.0
2015-02-27,49.22,,262330.0
2015-03-02,49.85,,251184.0
2015-03-03,49.24,,186739.0
2015-03-04,48.97,,230167.0
2015-03-05,48.38,,254068.0
2015-03-06,47.62,,270892.0
2015-03-09,47.53,,258789.0
2015-03-10,47.1,,327913.0
2015-03-11,46.74,,444863.0
2015-03-12,46.91,,312432.0
2015-03-13,46.45,,236931.0
2015-03-16,47.14,,189426.0
2015-03-17,46.96,,335576.0
2015-03-18,47.3,,459328.0
2015-03-19,46.99,,293943.0
2015-03-20,46.58,,559151.0
2015-03-23,46.74,,331028.0
2015-03-24,46.85,,474207.0
2015-03-25,46.33,,344943.0
2015-03-26,46.33,,254197.0
2015-03-27,46.53,,162982.0
2015-03-30,47.05,,263423.0
2015-03-31,46.87,,349620.0
2015-04-01,47.0,,402113.0
2015-04-02,46.5,,191327.0
2015-04-06,46.73,,273195.0
2015-04-07,46.46,,157405.0
2015-04-08,46.77,,184623.0
2015-04-09,46.68,,191338.0
2015-04-10,46.84,,315956.0
2015-04-13,46.78,,343311.0
2015-04-14,46.65,,319550.0
2015-04-15,46.35,,247658.0
2015-04-16,46.36,,276072.0
2015-04-17,46.19,,310937.0
2015-04-20,46.16,,300115.0
2015-04-21,46.07,,201368.0
2015-04-22,46.23,,156617.0
2015-04-23,46.29,,289583.0
2015-04-24,46.64,,249042.0
2015-04-27,46.42,,491388.0
2015-04-28,46.41,,158416.0
2015-04-29,46.18,,256596.0
2015-04-30,45.7,,404311.0
2015-05-01,47.68,,1365956.0
2015-05-04,47.59,,390064.0
2015-05-05,46.63,,659217.0
2015-05-06,46.73,,336808.0
2015-05-07,46.63,,656600.0
2015-05-08,46.79,,522609.0
2015-05-11,46.69,,501001.0
2015-05-12,47.14,,418173.0
2015-05-13,47.96,,601277.0
2015-05-14,48.84,,712707.0
2015-05-15,48.83,,213619.0
2015-05-18,49.29,,220143.0
2015-05-19,49.72,,314379.0
2015-05-20,49.09,,170558.0
2015-05-21,48.55,,325526.0
2015-05-22,48.13,,313552.0
2015-05-26,47.6,,286559.0
2015-05-27,48.11,,258816.0
2015-05-28,48.12,,273032.0
2015-05-29,47.4,,222927.0
2015-06-01,47.53,,405835.0
2015-06-02,47.58,,215176.0
2015-06-03,47.77,,182586.0
2015-06-04,47.55,,189385.0
2015-06-05,47.91,,344950.0
2015-06-08,47.38,,226354.0
2015-06-09,47.78,,367066.0
2015-06-10,47.87,,177821.0
2015-06-11,48.41,,221056.0
2015-06-12,48.21,,201119.0
2015-06-15,47.9,,329623.0
2015-06-16,48.53,,578976.0
2015-06-17,48.44,,244379.0
2015-06-18,48.9,,210422.0
2015-06-19,48.92,,450008.0
2015-06-22,49.13,,236068.0
2015-06-23,48.81,,380957.0
2015-06-24,48.08,,189134.0
2015-06-25,47.91,,190942.0
2015-06-26,48.11,,266734.0
2015-06-29,47.37,,211399.0
2015-06-30,47.4,,354490.0
2015-07-01,47.48,,223702.0
2015-07-02,47.42,,198523.0
2015-07-06,47.47,,229748.0
2015-07-07,47.93,,219346.0
2015-07-08,47.07,,223059.0
2015-07-09,47.04,,360555.0
2015-07-10,47.31,,173498.0
2015-07-13,47.89,,262035.0
2015-07-14,47.57,,188690.0
2015-07-15,47.57,,269395.0
2015-07-16,47.93,,140754.0
2015-07-17,47.56,,173874.0
2015-07-20,47.59,,147689.0
2015-07-21,46.71,,213602.0
2015-07-22,46.63,,175533.0
2015-07-23,46.09,,156566.0
2015-07-24,45.38,,194800.0
2015-07-27,45.29,,254902.0
2015-07-28,46.21,,243716.0
2015-07-29,50.26,,758647.0
2015-07-30,51.41,,759674.0
2015-07-31,51.7,,550710.0
2015-08-03,51.19,,364181.0
2015-08-04,51.84,,264739.0
2015-08-05,52.72,,239934.0
2015-08-06,52.28,,225401.0
2015-08-07,52.7,,240558.0
2015-08-10,53.83,,155273.0
2015-08-11,53.09,,385891.0
2015-08-12,52.69,,212191.0
2015-08-13,52.94,,241920.0
2015-08-14,53.78,,175747.0
2015-08-17,54.0,,161632.0
2015-08-18,53.74,,147968.0
2015-08-19,53.02,,206173.0
2015-08-20,51.98,,236477.0
2015-08-21,51.52,,399641.0
2015-08-24,50.06,,508321.0
2015-08-25,49.45,,317783.0
2015-08-26,50.62,,301240.0
2015-08-27,51.57,,280694.0
2015-08-28,51.62,,186209.0
2015-08-31,51.27,,242738.0
2015-09-01,49.71,,356963.0
2015-09-02,50.39,,248288.0
2015-09-03,51.29,,159449.0
2015-09-04,51.18,,244196.0
2015-09-08,51.93,,370249.0
2015-09-09,51.69,,432250.0
2015-09-10,50.82,,366109.0
2015-09-11,51.31,,266707.0
2015-09-14,50.63,,175279.0
2015-09-15,52.32,,523669.0
2015-09-16,52.95,,213497.0
2015-09-17,52.33,,178470.0
2015-09-18,51.06,,444231.0
2015-09-21,51.54,,193619.0
2015-09-22,50.65,,171664.0
2015-09-23,50.59,,359119.0
2015-09-24,49.51,,270383.0
2015-09-25,49.44,,388906.0
2015-09-28,48.06,,218685.0
2015-09-29,48.85,,422396.0
2015-09-30,49.87,,311421.0
2015-10-01,51.15,,569588.0
2015-10-02,51.89,,215956.0
2015-10-05,52.32,,271623.0
2015-10-06,51.59,,306305.0
2015-10-07,52.59,,222112.0
2015-10-08,53.54,,185025.0
2015-10-09,54.17,,252121.0
2015-10-12,54.48,,235124.0
2015-10-13,54.07,,257937.0
2015-10-14,53.58,,130990.0
2015-10-15,53.6,,236277.0
2015-10-16,53.75,,212531.0
2015-10-19,53.9,,186249.0
2015-10-20,54.4,,217324.0
2015-10-21,53.78,,194683.0
2015-10-22,55.2,,268251.0
2015-10-23,55.31,,256866.0
2015-10-26,55.21,,244919.0
2015-10-27,54.86,,281906.0
2015-10-28,55.76,,319242.0
2015-10-29,56.25,,387373.0
2015-10-30,57.47,,948315.0
2015-11-02,59.93,,432370.0
2015-11-03,58.97,,292004.0
2015-11-04,57.44,,423752.0
2015-11-05,57.66,,225332.0
2015-11-06,57.47,,288367.0
2015-11-09,56.66,,261934.0
2015-11-10,57.25,,293780.0
2015-11-11,57.27,,153878.0
2015-11-12,55.01,,305265.0
2015-11-13,55.73,,539591.0
2015-11-16,56.31,,196652.0
2015-11-17,56.18,,172597.0
2015-11-18,57.64,,181197.0
2015-11-19,57.89,,138555.0
2015-11-20,58.5,,157376.0
2015-11-23,58.06,,239042.0
2015-11-24,58.49,,226054.0
2015-11-25,59.08,,265280.0
2015-11-27,59.22,,65171.0
2015-11-30,58.69,,276259.0
2015-12-01,59.18,,125257.0
2015-12-02,58.14,,156873.0
2015-12-03,57.67,,182708.0
2015-12-04,58.56,,89475.0
2015-12-07,58.43,,242834.0
2015-12-08,57.81,,225117.0
2015-12-09,57.29,,235714.0
2015-12-10,57.64,,175484.0
2015-12-11,57.07,,169798.0
2015-12-14,56.76,,246855.0
2015-12-15,57.27,,185305.0
2015-12-16,57.66,,191174.0
2015-12-17,56.47,,160430.0
2015-12-18,55.32,,798217.0
2015-12-21,55.87,,224055.0
2015-12-22,56.52,,122338.0
2015-12-23,57.67,,216786.0
2015-12-24,57.51,,78814.0
2015-12-28,57.92,,137525.0
2015-12-29,58.25,,80787.0
2015-12-30,57.83,,100770.0
2015-12-31,56.86,,157827.0
2016-01-04,56.29,,288250.0
2016-01-05,55.88,,323753.0
2016-01-06,55.39,,389854.0
2016-01-07,53.97,,321622.0
2016-01-08,54.09,,561899.0
2016-01-11,54.03,,311997.0
2016-01-12,54.05,,286698.0
2016-01-13,53.12,,380236.0
2016-01-14,52.96,,439129.0
2016-01-15,52.28,,344178.0
2016-01-19,52.33,,221888.0
2016-01-20,52.04,,252972.0
2016-01-21,50.91,,323094.0
2016-01-22,52.46,,252625.0
2016-01-25,51.37,,330452.0
2016-01-26,55.0,,582235.0
2016-01-27,54.76,,491105.0
2016-01-28,55.18,,420848.0
2016-01-29,57.41,,796075.0
2016-02-01,56.82,,284729.0
2016-02-02,55.83,,325743.0
2016-02-03,57.66,,433060.0
2016-02-04,56.75,,365634.0
2016-02-05,55.63,,281883.0
2016-02-08,57.54,,522006.0
2016-02-09,58.92,,581191.0
2016-02-10,58.7,,362692.0
2016-02-11,58.83,,527049.0
2016-02-12,59.81,,306716.0
2016-02-16,58.46,,386770.0
2016-02-17,57.88,,374212.0
2016-02-18,57.81,,260379.0
2016-02-19,57.39,,700703.0
2016-02-22,57.31,,387394.0
2016-02-23,57.38,,264947.0
2016-02-24,58.42,,220169.0
2016-02-25,58.85,,208733.0
2016-02-26,57.84,,159440.0
2016-02-29,58.22,,213029.0
2016-03-01,59.01,,233104.0
2016-03-02,58.92,,154824.0
2016-03-03,59.71,,354469.0
2016-03-04,60.51,,299636.0
2016-03-07,60.23,,216147.0
2016-03-08,60.3,,236796.0
2016-03-09,60.36,,313314.0
2016-03-10,59.88,,266652.0
2016-03-11,60.29,,239224.0
2016-03-14,59.75,,285985.0
2016-03-15,60.67,,365278.0
2016-03-16,61.06,,188847.0
2016-03-17,61.77,,304332.0
2016-03-18,61.4,,611749.0
2016-03-21,61.89,,212040.0
2016-03-22,62.58,,241496.0
2016-03-23,62.65,,253247.0
2016-03-24,61.9,,207598.0
2016-03-28,62.82,,320277.0
2016-03-29,63.02,,624428.0
2016-03-30,63.24,,294197.0
2016-03-31,62.92,,373437.0
2016-04-01,63.6,,193949.0
2016-04-04,63.42,,176984.0
2016-04-05,62.25,,218688.0
2016-04-06,62.49,,250278.0
2016-04-07,61.86,,219097.0
2016-04-08,61.87,,178611.0
2016-04-11,61.87,,171759.0
2016-04-12,62.1,,201009.0
2016-04-13,62.7,,172494.0
2016-04-14,62.96,,211892.0
2016-04-15,63.76,,246953.0
2016-04-18,64.14,,221108.0
2016-04-19,63.96,,304845.0
2016-04-20,64.28,,188876.0
2016-04-21,63.09,,218635.0
2016-04-22,64.19,,238557.0
2016-04-25,63.83,,266797.0
2016-04-26,64.74,,234407.0
2016-04-27,64.77,,303245.0
2016-04-28,64.1,,575588.0
2016-04-29,60.81,,777825.0
2016-05-02,61.66,,478927.0
2016-05-03,60.56,,836239.0
2016-05-04,60.37,,574151.0
2016-05-05,60.87,,307208.0
2016-05-06,61.09,,222368.0
2016-05-09,61.36,,365705.0
2016-05-10,61.89,,196560.0
2016-05-11,61.64,,251849.0
2016-05-12,62.44,,219852.0
2016-05-13,61.78,,203255.0
2016-05-16,62.21,,169912.0
2016-05-17,60.21,,447172.0
2016-05-18,60.06,,337386.0
2016-05-19,59.66,,253189.0
2016-05-20,60.14,,301941.0
2016-05-23,59.6,,220478.0
2016-05-24,61.19,,257894.0
2016-05-25,61.16,,173419.0
2016-05-26,61.24,,140285.0
2016-05-27,61.95,,246482.0
2016-05-31,62.07,,267651.0
2016-06-01,62.02,,194593.0
2016-06-02,62.16,,222604.0
2016-06-03,62.01,,145166.0
2016-06-06,61.9,,184756.0
2016-06-07,62.3,,170102.0
2016-06-08,62.53,,128112.0
2016-06-09,62.6,,123444.0
2016-06-10,63.01,,274955.0
2016-06-13,61.59,,261784.0
2016-06-14,61.25,,246083.0
2016-06-15,61.13,,213264.0
2016-06-16,61.31,,285368.0
2016-06-17,61.16,,351289.0
2016-06-20,62.43,,141003.0
2016-06-21,62.49,,213380.0
2016-06-22,63.12,,162888.0
2016-06-23,64.95,,368830.0
2016-06-24,61.56,,461590.0
2016-06-27,60.28,,14437.0
2016-06-28,60.5,,216686.0
2016-06-29,61.53,,197974.0
2016-06-30,63.94,,395905.0
2016-07-01,63.98,,169376.0
2016-07-05,63.53,,207013.0
2016-07-06,63.55,,192254.0
2016-07-07,63.3,,155693.0
2016-07-08,64.6,,132255.0
2016-07-11,65.01,,144527.0
2016-07-12,65.22,,143824.0
2016-07-13,65.04,,188048.0
2016-07-14,65.0,,134064.0
2016-07-15,64.73,,164485.0
2016-07-18,64.72,,93430.0
2016-07-19,64.43,,87142.0
2016-07-20,65.11,,191179.0
2016-07-21,64.75,,132491.0
2016-07-22,65.27,,140892.0
2016-07-25,65.06,,235022.0
2016-07-26,65.41,,185172.0
2016-07-27,64.83,,321293.0
2016-07-28,64.49,,239102.0
2016-07-29,63.29,,730458.0
2016-08-01,62.45,,302645.0
2016-08-02,61.72,,406601.0
2016-08-03,61.73,,213538.0
2016-08-04,61.89,,171787.0
2016-08-05,61.7,,217924.0
2016-08-08,61.28,,185100.0
2016-08-09,61.09,,153013.0
2016-08-10,61.33,,132964.0
2016-08-11,61.21,,185105.0
2016-08-12,60.69,,99160.0
2016-08-15,60.61,,102963.0
2016-08-16,60.27,,186232.0
2016-08-17,60.9,,179416.0
2016-08-18,61.94,,220878.0
2016-08-19,61.89,,209431.0
2016-08-22,62.21,,144561.0
2016-08-23,62.45,,312412.0
2016-08-24,62.69,,185908.0
2016-08-25,63.18,,219465.0
2016-08-26,63.58,,376215.0
2016-08-29,63.89,,163423.0
2016-08-30,63.8,,198864.0
2016-08-31,63.09,,279706.0
2016-09-01,63.08,,209862.0
2016-09-02,64.27,,252956.0
2016-09-06,64.57,,237696.0
2016-09-07,65.4,,316150.0
2016-09-08,64.32,,281305.0
2016-09-09,62.57,,327271.0
2016-09-12,63.62,,182082.0
2016-09-13,62.65,,247114.0
2016-09-14,62.48,,149972.0
2016-09-15,63.01,,162619.0
2016-09-16,62.71,,310303.0
2016-09-19,63.72,,233229.0
2016-09-20,63.83,,280950.0
2016-09-21,63.53,,413240.0
2016-09-22,64.57,,281242.0
2016-09-23,63.9,,157113.0
2016-09-26,63.17,,289062.0
2016-09-27,62.85,,631363.0
2016-09-28,63.72,,211891.0
2016-09-29,62.32,,175077.0
2016-09-30,62.52,,407279.0
2016-10-03,62.47,,301526.0
2016-10-04,61.21,,242680.0
2016-10-05,61.22,,189698.0
2016-10-06,61.75,,153470.0
2016-10-07,60.75,,279517.0
2016-10-10,61.06,,116369.0
2016-10-11,60.18,,152995.0
2016-10-12,60.77,,140867.0
2016-10-13,60.7,,211211.0
2016-10-14,61.14,,176818.0
2016-10-17,61.31,,81454.0
2016-10-18,61.5,,112928.0
2016-10-19,61.59,,97884.0
2016-10-20,61.08,,219684.0
2016-10-21,62.27,,184447.0
2016-10-24,62.11,,150838.0
2016-10-25,62.11,,187127.0
2016-10-26,61.38,,179249.0
2016-10-27,61.39,,174609.0
2016-10-28,58.13,,464700.0
2016-10-31,56.87,,644902.0
2016-11-01,56.05,,345495.0
2016-11-02,56.35,,267391.0
2016-11-03,56.3,,218440.0
2016-11-04,56.84,,235508.0
2016-11-07,59.76,,458676.0
2016-11-08,61.17,,506672.0
2016-11-09,60.54,,313417.0
2016-11-10,56.86,,636142.0
2016-11-11,57.28,,316912.0
2016-11-14,58.94,,308005.0
2016-11-15,58.81,,190130.0
2016-11-16,59.0,,205436.0
2016-11-17,59.01,,207514.0
2016-11-18,59.08,,229859.0
2016-11-21,59.67,,182626.0
2016-11-22,60.92,,452449.0
2016-11-23,61.48,,194226.0
2016-11-25,61.5,,123601.0
2016-11-28,61.9,,346654.0
2016-11-29,61.11,,327475.0
2016-11-30,58.61,,322793.0
2016-12-01,59.51,,467574.0
2016-12-02,59.78,,388062.0
2016-12-05,58.81,,350973.0
2016-12-06,59.23,,356684.0
2016-12-07,58.91,,579332.0
2016-12-08,59.63,,409101.0
2016-12-09,60.18,,389229.0
2016-12-12,60.04,,276796.0
2016-12-13,59.8,,270858.0
2016-12-14,58.48,,343948.0
2016-12-15,58.39,,346153.0
2016-12-16,58.36,,665829.0
2016-12-19,59.23,,280469.0
2016-12-20,59.41,,269383.0
2016-12-21,58.79,,280568.0
2016-12-22,58.45,,291816.0
2016-12-23,59.04,,161526.0
2016-12-27,59.6,,201864.0
2016-12-28,59.15,,191235.0
2016-12-29,59.12,,139464.0
2016-12-30,58.88,,240270.0
2017-01-03,58.45,,336293.0
2017-01-04,59.66,,419581.0
2017-01-05,58.9,,356694.0
2017-01-06,58.93,,283142.0
2017-01-09,59.11,,374141.0
2017-01-10,58.25,,161488.0
2017-01-11,58.47,,193161.0
2017-01-12,58.76,,184303.0
2017-01-13,58.93,,188879.0
2017-01-17,58.77,,270247.0
2017-01-18,58.91,,260959.0
2017-01-19,58.16,,374690.0
2017-01-20,57.07,,347291.0
2017-01-23,57.88,,384676.0
2017-01-24,58.97,,266799.0
2017-01-25,58.86,,267560.0
2017-01-26,58.75,,275510.0
2017-01-27,58.87,,320397.0
2017-01-30,58.49,,342247.0
2017-01-31,58.72,,669505.0
2017-02-01,59.69,,446900.0
2017-02-02,59.08,,326000.0
2017-02-03,59.53,,278230.0
2017-02-06,59.1,,254525.0
2017-02-07,58.48,,360882.0
2017-02-08,59.3,,397348.0
2017-02-09,59.32,,437997.0
2017-02-10,60.54,,1160077.0
2017-02-13,60.18,,440010.0
2017-02-14,59.58,,431966.0
2017-02-15,58.95,,522848.0
2017-02-16,59.95,,266985.0
2017-02-17,59.65,,318628.0
2017-02-21,60.34,,188727.0
2017-02-22,60.01,,204510.0
2017-02-23,59.87,,250598.0
2017-02-24,60.11,,232455.0
2017-02-27,60.23,,251809.0
2017-02-28,60.26,,390261.0
2017-03-01,61.81,,371000.0
2017-03-02,61.56,,327706.0
2017-03-03,61.79,,298395.0
2017-03-06,61.4,,302128.0
2017-03-07,61.22,,452664.0
2017-03-08,61.69,,435632.0
2017-03-09,61.6,,341286.0
2017-03-10,62.54,,435553.0
2017-03-13,62.5,,222648.0
2017-03-14,62.28,,266063.0
2017-03-15,62.99,,225810.0
2017-03-16,62.73,,186745.0
2017-03-17,62.83,,405118.0
2017-03-20,63.59,,247641.0
2017-03-21,62.52,,321349.0
2017-03-22,62.6,,130623.0
2017-03-23,62.91,,136566.0
2017-03-24,62.37,,154338.0
2017-03-27,62.37,,256173.0
2017-03-28,62.82,,237747.0
2017-03-29,62.79,,129335.0
2017-03-30,62.61,,141873.0
2017-03-31,62.74,,197237.0
2017-04-03,62.2,,424866.0
2017-04-04,62.49,,318885.0
2017-04-05,61.83,,372790.0
2017-04-06,62.28,,293689.0
2017-04-07,61.91,,214798.0
2017-04-10,62.64,,242477.0
2017-04-11,62.67,,263749.0
2017-04-12,61.98,,236765.0
2017-04-13,61.55,,164844.0
2017-04-17,63.02,,220680.0
2017-04-18,63.32,,196800.0
2017-04-19,63.3,,264847.0
2017-04-20,63.57,,354339.0
2017-04-21,63.74,,185387.0
2017-04-24,64.05,,250931.0
2017-04-25,64.48,,290488.0
2017-04-26,65.09,,343018.0
2017-04-27,64.54,,237612.0
2017-04-28,66.05,,638010.0
2017-05-01,65.8,,974597.0
2017-05-02,66.27,,450866.0
2017-05-03,66.52,,384455.0
2017-05-04,67.46,,488751.0
2017-05-05,67.98,,413429.0
2017-05-08,68.58,,374474.0
2017-05-09,68.55,,302629.0
2017-05-10,68.94,,308238.0
2017-05-11,68.6,,311474.0
2017-05-12,68.5,,227561.0
2017-05-15,68.7,,212008.0
2017-05-16,68.86,,210922.0
2017-05-17,68.35,,266522.0
2017-05-18,68.21,,325674.0
2017-05-19,68.43,,331890.0
2017-05-22,68.91,,238454.0
2017-05-23,69.26,,204255.0
2017-05-24,69.46,,187370.0
2017-05-25,70.22,,203220.0
2017-05-26,70.44,,158305.0
2017-05-30,70.61,,224397.0
2017-05-31,71.08,,285365.0
2017-06-01,72.33,,272639.0
2017-06-02,72.4,,170799.0
2017-06-05,71.92,,237631.0
2017-06-06,71.55,,342633.0
2017-06-07,71.76,,366697.0
2017-06-08,71.32,,184950.0
2017-06-09,71.72,,189964.0
2017-06-12,71.51,,238981.0
2017-06-13,72.25,,178677.0
2017-06-14,72.32,,212250.0
2017-06-15,72.3,,200008.0
2017-06-16,72.02,,450842.0
2017-06-19,72.82,,166591.0
2017-06-20,72.96,,240302.0
2017-06-21,73.07,,185943.0
2017-06-22,72.89,,166362.0
2017-06-23,72.87,,474255.0
2017-06-26,73.21,,307101.0
2017-06-27,72.44,,188034.0
2017-06-28,73.0,,169561.0
2017-06-29,72.56,,196166.0
2017-06-30,72.93,,238489.0
2017-07-03,73.15,,118790.0
2017-07-05,73.36,,243907.0
2017-07-06,73.38,,394067.0
2017-07-07,74.16,,245176.0
2017-07-10,74.37,,246389.0
2017-07-11,74.28,,79288.0
2017-07-12,75.04,,69267.0
2017-07-13,74.68,,183178.0
2017-07-14,75.52,,160441.0
2017-07-17,75.85,,158035.0
2017-07-18,75.82,,131085.0
2017-07-19,76.16,,395267.0
2017-07-20,75.77,,178738.0
2017-07-21,75.58,,117686.0
2017-07-24,75.85,,210852.0
2017-07-25,75.09,,270530.0
2017-07-26,74.48,,179355.0
2017-07-27,74.39,,328952.0
2017-07-28,68.57,,416519.0
2017-07-31,67.32,,964181.0
2017-08-01,68.89,,232661.0
2017-08-02,68.64,,128274.0
2017-08-03,68.66,,173567.0
2017-08-04,68.71,,59338.0
2017-08-07,69.12,,63622.0
2017-08-08,69.13,,74123.0
2017-08-09,68.87,,189006.0
2017-08-10,67.9,,265319.0
2017-08-11,68.53,,214223.0
2017-08-14,69.3,,147273.0
2017-08-15,69.14,,190919.0
2017-08-16,69.94,,248805.0
2017-08-17,68.52,,221656.0
2017-08-18,68.54,,190983.0
2017-08-21,67.88,,126263.0
2017-08-22,68.51,,190067.0
2017-08-23,68.0,,180549.0
2017-08-24,67.47,,180055.0
2017-08-25,68.78,,330207.0
2017-08-28,68.25,,241605.0
2017-08-29,68.39,,226288.0
2017-08-30,69.36,,208125.0
2017-08-31,70.0,,267379.0
2017-09-01,70.27,,183042.0
2017-09-05,69.64,,192474.0
2017-09-06,69.24,,240863.0
2017-09-07,70.0,,241054.0
2017-09-08,70.21,,207706.0
2017-09-11,71.51,,209799.0
2017-09-12,71.59,,214526.0
2017-09-13,70.89,,229524.0
2017-09-14,71.26,,166326.0
2017-09-15,71.1,,399786.0
2017-09-18,71.83,,198665.0
2017-09-19,71.95,,260352.0
2017-09-20,72.51,,167309.0
2017-09-21,72.54,,199580.0
2017-09-22,72.11,,189488.0
2017-09-25,73.15,,222838.0
2017-09-26,73.14,,199743.0
2017-09-27,72.93,,272939.0
2017-09-28,73.47,,228244.0
2017-09-29,72.7,,220727.0
2017-10-02,74.27,,264007.0
2017-10-03,74.82,,202324.0
2017-10-04,74.53,,231660.0
2017-10-05,74.53,,178915.0
2017-10-06,74.97,,162801.0
2017-10-09,74.85,,139432.0
2017-10-10,74.86,,186982.0
2017-10-11,74.75,,162511.0
2017-10-12,74.88,,168062.0
2017-10-13,75.23,,187132.0
2017-10-16,75.33,,236025.0
2017-10-17,75.37,,175345.0
2017-10-18,74.99,,207629.0
2017-10-19,75.03,,152121.0
2017-10-20,75.59,,134753.0
2017-10-23,75.42,,418943.0
2017-10-24,75.51,,189251.0
2017-10-25,74.88,,201881.0
2017-10-26,75.33,,234731.0
2017-10-27,74.32,,531677.0
2017-10-30,72.85,,260476.0
2017-10-31,73.78,,474897.0
2017-11-01,74.12,,279320.0
2017-11-02,73.31,,259249.0
2017-11-03,73.65,,215968.0
2017-11-06,72.56,,271752.0
2017-11-07,72.43,,326994.0
2017-11-08,72.44,,271415.0
2017-11-09,71.47,,146660.0
2017-11-10,71.62,,195792.0
2017-11-13,72.3,,156136.0
2017-11-14,72.32,,157458.0
2017-11-15,72.19,,182541.0
2017-11-16,72.82,,264401.0
2017-11-17,72.36,,170988.0
2017-11-20,72.18,,220294.0
2017-11-21,73.25,,506685.0
2017-11-22,72.56,,140281.0
2017-11-24,72.96,,108243.0
2017-11-27,73.45,,330882.0
2017-11-28,73.62,,194666.0
2017-11-29,74.27,,194274.0
2017-11-30,75.12,,232041.0
2017-12-01,74.31,,244371.0
2017-12-04,74.77,,290376.0
2017-12-05,75.71,,255868.0
2017-12-06,74.88,,251694.0
2017-12-07,75.09,,258943.0
2017-12-08,74.61,,251057.0
2017-12-11,73.99,,241366.0
2017-12-12,73.14,,424767.0
2017-12-13,73.4,,420871.0
2017-12-14,73.08,,302012.0
2017-12-15,73.69,,474904.0
2017-12-18,73.28,,251820.0
2017-12-19,73.29,,367204.0
2017-12-20,73.04,,189513.0
2017-12-21,72.47,,265425.0
2017-12-22,72.61,,162614.0
2017-12-26,72.1,,130536.0
2017-12-27,72.33,,114736.0
2017-12-28,73.46,,207000.0
2017-12-29,72.99,,148922.0
2018-01-02,73.72,,233277.0
2018-01-03,73.9,,177866.0
2018-01-04,72.72,,362860.0
2018-01-05,73.62,,209246.0
2018-01-08,73.91,,341229.0
2018-01-09,73.1,,282025.0
2018-01-10,72.38,,161481.0
2018-01-11,72.96,,311574.0
2018-01-12,73.27,,179424.0
2018-01-16,72.95,,254129.0
2018-01-17,73.55,,250464.0
2018-01-18,73.95,,220849.0
2018-01-19,75.32,,177488.0
2018-01-22,74.17,,369877.0
2018-01-23,74.31,,158876.0
2018-01-24,74.91,,255015.0
2018-01-25,76.14,,339050.0
2018-01-26,75.85,,206355.0
2018-01-29,74.44,,254530.0
2018-01-30,74.72,,344990.0
2018-01-31,74.45,,519129.0
2018-02-01,73.87,,220827.0
2018-02-02,72.83,,217791.0
2018-02-05,70.41,,434248.0
2018-02-06,70.82,,352721.0
2018-02-07,70.88,,304724.0
2018-02-08,68.41,,349147.0
2018-02-09,69.19,,367204.0
2018-02-12,69.63,,303465.0
2018-02-13,76.75,,1101994.0
2018-02-14,77.69,,512092.0
2018-02-15,78.2,,333362.0
2018-02-16,78.86,,335565.0
2018-02-20,78.09,,371976.0
2018-02-21,77.19,,283395.0
2018-02-22,77.64,,255255.0
2018-02-23,78.02,,249922.0
2018-02-26,77.81,,250340.0
2018-02-27,76.53,,286538.0
2018-02-28,76.45,,306929.0
2018-03-01,76.03,,242020.0
2018-03-02,76.71,,270841.0
2018-03-05,77.43,,231224.0
2018-03-06,77.8,,295821.0
2018-03-07,77.17,,317500.0
2018-03-08,76.98,,367990.0
2018-03-09,77.9,,283208.0
2018-03-12,77.81,,181057.0
2018-03-13,77.53,,257520.0
2018-03-14,77.1,,267190.0
2018-03-15,77.31,,239638.0
2018-03-16,77.18,,424819.0
2018-03-19,76.99,,155180.0
2018-03-20,76.81,,247724.0
2018-03-21,76.62,,266398.0
2018-03-22,74.99,,260907.0
2018-03-23,73.8,,215889.0
2018-03-26,75.24,,279270.0
2018-03-27,75.11,,253264.0
2018-03-28,75.39,,194018.0
2018-03-29,76.86,,287331.0
2018-04-02,74.96,,184422.0
2018-04-03,76.59,,336662.0
2018-04-04,76.74,,276508.0
2018-04-05,77.43,,276399.0
2018-04-06,75.53,,362226.0
2018-04-09,76.93,,471701.0
2018-04-10,79.75,,456727.0
2018-04-11,79.28,,250832.0
2018-04-12,79.73,,221469.0
2018-04-13,79.78,,262933.0
2018-04-16,81.34,,197102.0
2018-04-17,83.16,,507151.0
2018-04-18,82.64,,346822.0
2018-04-19,81.83,,164994.0
2018-04-20,81.47,,217829.0
2018-04-23,81.38,,189535.0
2018-04-24,80.21,,401942.0
2018-04-25,80.18,,298683.0
2018-04-26,80.31,,416966.0
2018-04-27,80.49,,407466.0
2018-04-30,80.53,,907788.0
2018-05-01,80.57,,427775.0
2018-05-02,79.59,,631054.0
2018-05-03,78.15,,560175.0
2018-05-04,79.29,,339865.0
2018-05-07,79.83,,215114.0
2018-05-08,79.11,,284677.0
2018-05-09,80.31,,255572.0
2018-05-10,81.14,,377871.0
2018-05-11,81.64,,492917.0
2018-05-14,80.72,,477510.0
2018-05-15,79.45,,406481.0
2018-05-16,80.89,,257640.0
2018-05-17,80.64,,242644.0
2018-05-18,80.91,,272286.0
2018-05-21,81.36,,162296.0
2018-05-22,81.31,,165668.0
2018-05-23,81.44,,165822.0
2018-05-24,81.38,,116184.0
2018-05-25,81.43,,154961.0
2018-05-29,80.66,,212663.0
2018-05-30,81.31,,258583.0
2018-05-31,79.67,,151882.0
2018-06-01,80.12,,174812.0
2018-06-04,81.21,,172130.0
2018-06-05,81.27,,114863.0
2018-06-06,81.26,,437318.0
2018-06-07,80.59,,534002.0
2018-06-08,81.01,,290594.0
2018-06-11,81.17,,389397.0
2018-06-12,81.5,,455067.0
2018-06-13,81.67,,321416.0
2018-06-14,82.21,,320421.0
2018-06-15,82.27,,505171.0
2018-06-18,82.19,,347357.0
2018-06-19,81.6,,333769.0
2018-06-20,81.99,,285642.0
2018-06-21,80.45,,296952.0
2018-06-22,79.98,,750023.0
2018-06-25,79.53,,348676.0
2018-06-26,80.06,,266687.0
2018-06-27,79.45,,295836.0
2018-06-28,80.06,,251317.0
2018-06-29,80.73,,336590.0
2018-07-02,80.94,,237713.0
2018-07-03,81.34,,178013.0
2018-07-05,81.89,,249933.0
2018-07-06,81.43,,238034.0
2018-07-09,82.45,,188737.0
2018-07-10,83.46,,216111.0
2018-07-11,83.03,,220824.0
2018-07-12,83.09,,196740.0
2018-07-13,82.22,,205285.0
2018-07-16,80.64,,132207.0
2018-07-17,81.99,,155525.0
2018-07-18,81.97,,150047.0
2018-07-19,83.68,,213372.0
2018-07-20,83.13,,192974.0
2018-07-23,82.49,,196130.0
2018-07-24,82.1,,225316.0
2018-07-25,82.08,,182350.0
2018-07-26,83.42,,170348.0
2018-07-27,90.25,,637544.0
2018-07-30,89.85,,531829.0
2018-07-31,90.12,,588092.0
2018-08-01,90.12,,301378.0
2018-08-02,90.67,,327441.0
2018-08-03,91.79,,300426.0
2018-08-06,91.9,,279828.0
2018-08-07,91.24,,296459.0
2018-08-08,90.65,,277860.0
2018-08-09,91.59,,265741.0
2018-08-10,90.07,,325603.0
2018-08-13,89.09,,227754.0
2018-08-14,89.67,,176471.0
2018-08-15,89.03,,300646.0
2018-08-16,89.36,,276339.0
2018-08-17,90.45,,131912.0
2018-08-20,90.55,,198860.0
2018-08-21,90.98,,209565.0
2018-08-22,90.87,,103272.0
2018-08-23,90.6,,124393.0
2018-08-24,91.49,,127262.0
2018-08-27,92.23,,175418.0
2018-08-28,91.58,,214901.0
2018-08-29,92.39,,200032.0
2018-08-30,92.39,,231956.0
2018-08-31,92.4,,152976.0
2018-09-04,94.07,,323596.0
2018-09-05,95.87,,334141.0
2018-09-06,96.64,,228403.0
2018-09-07,95.59,,258482.0
2018-09-10,96.25,,212420.0
2018-09-11,96.21,,101635.0
2018-09-12,97.08,,154730.0
2018-09-13,98.51,,273891.0
2018-09-14,99.66,,424194.0
2018-09-17,98.99,,564522.0
2018-09-18,99.28,,202630.0
2018-09-19,98.82,,204276.0
2018-09-20,98.18,,204539.0
2018-09-21,98.01,,473172.0
2018-09-24,98.07,,352381.0
2018-09-25,96.45,,279003.0
2018-09-26,96.29,,629135.0
2018-09-27,96.03,,255606.0
2018-09-28,95.43,,417093.0
2018-10-01,95.46,,208783.0
2018-10-02,95.84,,210333.0
2018-10-03,95.69,,361245.0
2018-10-04,94.78,,273292.0
2018-10-05,94.86,,220877.0
2018-10-08,95.36,,164691.0
2018-10-09,93.41,,277638.0
2018-10-10,90.11,,456009.0
2018-10-11,89.26,,312734.0
2018-10-12,89.34,,399111.0
2018-10-15,89.84,,239587.0
2018-10-16,93.29,,231291.0
2018-10-17,92.71,,181208.0
2018-10-18,91.96,,439856.0
2018-10-19,92.01,,271771.0
2018-10-22,91.66,,199259.0
2018-10-23,91.37,,479536.0
2018-10-24,87.77,,498333.0
2018-10-25,88.98,,299776.0
2018-10-26,88.05,,423761.0
2018-10-29,87.85,,271254.0
2018-10-30,89.4,,318586.0
2018-10-31,89.99,,417195.0
2018-11-01,91.21,,392576.0
2018-11-02,91.83,,959342.0
2018-11-05,89.91,,481521.0
2018-11-06,92.13,,381287.0
2018-11-07,93.14,,340223.0
2018-11-08,93.16,,368402.0
2018-11-09,92.32,,227448.0
2018-11-12,89.8,,343096.0
2018-11-13,90.41,,225157.0
2018-11-14,90.11,,163246.0
2018-11-15,92.82,,261036.0
2018-11-16,94.31,,235495.0
2018-11-19,93.21,,192668.0
2018-11-20,92.34,,246845.0
2018-11-21,91.53,,221565.0
2018-11-23,91.93,,75383.0
2018-11-26,91.72,,231733.0
2018-11-27,90.33,,213379.0
2018-11-28,92.06,,327835.0
2018-11-29,91.88,,238440.0
2018-11-30,92.08,,330395.0
2018-12-03,92.49,,292031.0
2018-12-04,90.97,,273098.0
2018-12-06,89.66,,302903.0
2018-12-07,87.8,,226104.0
2018-12-10,87.14,,161095.0
2018-12-11,86.7,,192638.0
2018-12-12,87.96,,240918.0
2018-12-13,88.35,,167754.0
2018-12-14,88.37,,187060.0
2018-12-17,86.67,,313945.0
2018-12-18,85.97,,231027.0
2018-12-19,83.62,,268346.0
2018-12-20,83.04,,248103.0
2018-12-21,81.58,,588809.0
2018-12-24,77.73,,168286.0
2018-12-26,79.8,,394422.0
2018-12-27,80.4,,467457.0
2018-12-28,80.73,,437401.0
2018-12-31,82.1,,246890.0
2019-01-02,78.21,,517509.0
2019-01-03,77.12,,637150.0
2019-01-04,79.1,,433585.0
2019-01-07,79.98,,525521.0
2019-01-08,81.55,,379628.0
2019-01-09,81.51,,195706.0
2019-01-10,82.61,,205761.0
2019-01-11,82.76,,248230.0
2019-01-14,81.99,,210516.0
2019-01-15,82.84,,213878.0
2019-01-16,82.74,,187128.0
2019-01-17,83.96,,265504.0
2019-01-18,85.72,,237430.0
2019-01-22,84.47,,304042.0
2019-01-23,85.41,,266276.0
2019-01-24,85.16,,135290.0
2019-01-25,85.42,,116296.0
2019-01-28,85.91,,217930.0
2019-01-29,86.31,,161557.0
2019-01-30,86.33,,292489.0
2019-01-31,87.49,,346521.0
2019-02-01,87.92,,269591.0
2019-02-04,88.22,,137152.0
2019-02-05,89.44,,288010.0
2019-02-06,89.96,,206815.0
2019-02-07,90.32,,202107.0
2019-02-08,89.76,,184333.0
2019-02-11,90.07,,239062.0
2019-02-12,90.69,,230014.0
2019-02-13,91.17,,229736.0
2019-02-14,90.14,,234016.0
2019-02-15,90.31,,235783.0
2019-02-19,89.92,,378752.0
2019-02-20,90.63,,282132.0
2019-02-21,91.49,,508609.0
2019-02-22,90.42,,303446.0
2019-02-25,89.93,,336106.0
2019-02-26,89.68,,302453.0
2019-02-27,89.78,,375294.0
2019-02-28,90.1,,311513.0
2019-03-01,89.18,,245917.0
2019-03-04,89.98,,323954.0
2019-03-05,89.84,,210995.0
2019-03-06,88.86,,127463.0
2019-03-07,88.25,,151639.0
2019-03-08,88.84,,146283.0
2019-03-11,90.39,,175345.0
2019-03-12,90.63,,176738.0
2019-03-13,90.65,,287600.0
2019-03-14,91.26,,169366.0
2019-03-15,91.42,,278639.0
2019-03-18,92.08,,132825.0
2019-03-19,91.97,,188787.0
2019-03-20,92.32,,181304.0
2019-03-21,93.91,,194030.0
2019-03-22,92.2,,213244.0
2019-03-25,92.88,,163923.0
2019-03-26,93.81,,262331.0
2019-03-27,93.89,,179545.0
2019-03-28,94.56,,129881.0
2019-03-29,94.76,,337852.0
2019-04-01,96.08,,234028.0
2019-04-02,95.59,,194630.0
2019-04-03,95.84,,201174.0
2019-04-04,96.47,,164039.0
2019-04-05,97.11,,161427.0
2019-04-08,97.36,,149643.0
2019-04-09,96.53,,183397.0
2019-04-10,97.41,,166232.0
2019-04-11,98.03,,228850.0
2019-04-12,98.68,,185905.0
2019-04-15,98.26,,190458.0
2019-04-16,97.99,,197586.0
2019-04-17,96.07,,150516.0
2019-04-18,96.58,,214628.0
2019-04-22,97.3,,165792.0
2019-04-23,98.43,,220847.0
2019-04-24,98.31,,152213.0
2019-04-25,97.82,,132433.0
2019-04-26,99.79,,138903.0
2019-04-29,99.69,,137617.0
2019-04-30,99.97,,277619.0
2019-05-01,101.54,,336088.0
2019-05-02,101.73,,345204.0
2019-05-03,102.58,,310238.0
2019-05-06,103.75,,263005.0
2019-05-07,102.7,,159469.0
2019-05-08,102.72,,169440.0
2019-05-09,101.73,,259340.0
2019-05-10,102.33,,225077.0
2019-05-13,101.53,,160051.0
2019-05-14,101.71,,132569.0
2019-05-15,101.97,,116542.0
2019-05-16,102.84,,218788.0
2019-05-17,102.51,,151774.0
2019-05-20,101.77,,175618.0
2019-05-21,102.21,,156312.0
2019-05-22,101.88,,146841.0
2019-05-23,101.69,,119559.0
2019-05-24,101.66,,117688.0
2019-05-28,101.63,,259214.0
2019-05-29,101.43,,188163.0
2019-05-30,102.24,,128668.0
2019-05-31,102.0,,247393.0
2019-06-03,102.76,,297386.0
2019-06-04,104.45,,483419.0
2019-06-05,105.86,,391954.0
2019-06-06,108.96,,319780.0
2019-06-07,110.65,,427824.0
2019-06-10,111.95,,253226.0
2019-06-11,111.31,,365595.0
2019-06-12,110.35,,273428.0
2019-06-13,109.45,,166542.0
2019-06-14,108.82,,187349.0
2019-06-17,108.9,,136290.0
2019-06-18,108.22,,208300.0
2019-06-19,108.14,,340170.0
2019-06-20,108.54,,335216.0
2019-06-21,108.11,,603561.0
2019-06-24,107.51,,187657.0
2019-06-25,109.79,,300711.0
2019-06-26,107.97,,236658.0
2019-06-27,110.28,,247700.0
2019-06-28,113.07,,831071.0
2019-07-01,113.0,,322479.0
2019-07-02,112.27,,402402.0
2019-07-03,114.65,,188631.0
2019-07-05,113.34,,255265.0
2019-07-08,112.72,,199616.0
2019-07-09,112.8,,235037.0
2019-07-10,112.31,,169886.0
2019-07-11,112.75,,226439.0
2019-07-12,112.14,,240997.0
2019-07-15,111.65,,189630.0
2019-07-16,111.89,,230822.0
2019-07-17,112.26,,267313.0
2019-07-18,113.09,,185306.0
2019-07-19,112.13,,226034.0
2019-07-22,111.89,,153780.0
2019-07-23,113.24,,183579.0
2019-07-24,112.02,,215324.0
2019-07-25,111.65,,273685.0
2019-07-26,113.22,,198002.0
2019-07-29,113.67,,277407.0
2019-07-30,112.9,,223556.0
2019-07-31,110.11,,621401.0
2019-08-01,106.65,,532978.0
2019-08-02,107.11,,316584.0
2019-08-05,106.17,,462482.0
2019-08-06,108.81,,356431.0
2019-08-07,111.57,,2648.0
2019-08-08,111.96,,374310.0
2019-08-09,110.17,,186567.0
2019-08-12,109.11,,135107.0
2019-08-13,110.31,,216331.0
2019-08-14,108.18,,375783.0
2019-08-15,107.42,,238377.0
2019-08-16,109.34,,202454.0
2019-08-19,109.31,,206391.0
2019-08-20,107.97,,141804.0
2019-08-21,108.42,,298497.0
2019-08-22,109.63,,227117.0
2019-08-23,109.35,,296120.0
2019-08-26,110.08,,237130.0
2019-08-27,110.59,,182973.0
2019-08-28,110.95,,247153.0
2019-08-29,110.78,,184620.0
2019-08-30,111.31,,183744.0
2019-09-03,108.74,,265545.0
2019-09-04,111.03,,160881.0
2019-09-05,110.29,,230128.0
2019-09-06,109.97,,239256.0
2019-09-09,108.19,,232906.0
2019-09-10,108.2,,258227.0
2019-09-11,107.72,,231671.0
2019-09-12,107.14,,163331.0
2019-09-13,107.49,,270017.0
2019-09-16,105.57,,192124.0
2019-09-17,106.1,,222160.0
2019-09-18,107.39,,253484.0
2019-09-19,106.94,,304304.0
2019-09-20,107.14,,528359.0
2019-09-23,107.19,,173948.0
2019-09-24,107.6,,198378.0
2019-09-25,108.21,,226637.0
2019-09-26,108.01,,117884.0
2019-09-27,107.76,,149159.0
2019-09-30,107.54,,230822.0
2019-10-01,106.76,,143491.0
2019-10-02,104.44,,234759.0
2019-10-03,104.08,,241121.0
2019-10-04,106.42,,162667.0
2019-10-07,105.65,,229873.0
2019-10-08,103.87,,221942.0
2019-10-09,105.57,,134746.0
2019-10-10,105.4,,102448.0
2019-10-11,105.42,,213734.0
2019-10-14,104.94,,131911.0
2019-10-15,104.27,,182756.0
2019-10-16,104.56,,213726.0
2019-10-17,105.64,,153825.0
2019-10-18,106.87,,219124.0
2019-10-21,106.99,,143014.0
2019-10-22,105.75,,85350.0
2019-10-23,106.46,,110689.0
2019-10-24,106.43,,122463.0
2019-10-25,106.97,,120328.0
2019-10-28,107.29,,134129.0
2019-10-29,107.96,,147331.0
2019-10-30,108.7,,148246.0
2019-10-31,107.6,,316017.0
2019-11-01,100.24,,598773.0
2019-11-04,98.12,,556284.0
2019-11-05,98.11,,386560.0
2019-11-06,98.94,,370819.0
2019-11-07,98.85,,195460.0
2019-11-08,98.45,,303487.0
2019-11-11,98.03,,181486.0
2019-11-12,97.67,,185369.0
2019-11-13,99.07,,385407.0
2019-11-14,99.92,,223955.0
2019-11-15,99.41,,307326.0
2019-11-18,99.79,,352107.0
2019-11-19,99.95,,258673.0
2019-11-20,100.15,,961396.0
2019-11-21,100.75,,244217.0
2019-11-22,99.57,,151654.0
2019-11-25,100.4,,264408.0
2019-11-26,102.01,,225281.0
2019-11-27,102.28,,145542.0
2019-11-29,101.57,,89345.0
2019-12-02,101.46,,291029.0
2019-12-03,102.16,,250620.0
2019-12-04,101.23,,284584.0
2019-12-05,101.4,,243742.0
2019-12-06,101.53,,322658.0
2019-12-09,102.08,,256939.0
2019-12-10,101.39,,219460.0
2019-12-11,102.02,,141102.0
2019-12-12,103.63,,406995.0
2019-12-13,103.42,,380394.0
2019-12-16,103.77,,194198.0
2019-12-17,102.8,,248897.0
2019-12-18,102.53,,204047.0
2019-12-19,102.71,,172102.0
2019-12-20,104.41,,473535.0
2019-12-23,104.82,,144269.0
2019-12-24,104.18,,63750.0
2019-12-26,104.27,,110947.0
2019-12-27,104.47,,87765.0
2019-12-30,105.21,,193016.0
2019-12-31,105.07,,310703.0
2020-01-02,103.13,,362728.0
2020-01-03,103.49,,221476.0
2020-01-06,103.5,,282380.0
2020-01-07,102.36,,234706.0
2020-01-08,102.67,,331007.0
2020-01-09,104.11,,329059.0
2020-01-10,105.24,,196772.0
2020-01-13,105.65,,248524.0
2020-01-14,105.58,,160769.0
2020-01-15,106.16,,241474.0
2020-01-16,107.67,,187250.0
2020-01-17,106.77,,190576.0
2020-01-21,105.08,,189290.0
2020-01-22,105.12,,141849.0
2020-01-23,106.82,,301049.0
2020-01-24,106.57,,213020.0
2020-01-27,105.94,,239142.0
2020-01-28,105.78,,178570.0
2020-01-29,105.75,,211190.0
2020-01-30,106.35,,153240.0
2020-01-31,105.32,,300725.0
2020-02-03,107.05,,271260.0
2020-02-04,106.76,,313719.0
2020-02-05,107.68,,188114.0
2020-02-06,107.34,,247828.0
2020-02-07,106.51,,144458.0
2020-02-10,105.61,,142588.0
2020-02-11,105.86,,197557.0
2020-02-12,104.52,,448151.0
2020-02-13,106.01,,200392.0
2020-02-14,106.48,,216777.0
2020-02-18,105.07,,271337.0
2020-02-19,104.82,,289187.0
2020-02-20,104.74,,378435.0
2020-02-21,101.79,,720605.0
2020-02-24,99.02,,447892.0
2020-02-25,96.75,,641406.0
2020-02-26,94.49,,504540.0
2020-02-27,92.21,,670787.0
2020-02-28,90.88,,690812.0
2020-03-02,93.39,,331763.0
2020-03-03,92.57,,353265.0
2020-03-04,97.25,,294471.0
2020-03-05,93.79,,273797.0
2020-03-06,97.11,,623961.0
2020-03-09,91.26,,597080.0
2020-03-10,93.8,,522291.0
2020-03-11,88.89,,705829.0
2020-03-12,84.21,,843114.0
2020-03-13,86.2,,595966.0
2020-03-16,77.69,,667379.0
2020-03-17,86.26,,595700.0
2020-03-18,86.56,,761995.0
2020-03-19,88.69,,354696.0
2020-03-20,82.32,,727300.0
2020-03-23,73.74,,698781.0
2020-03-24,77.87,,535619.0
2020-03-25,79.99,,576162.0
2020-03-26,86.01,,447015.0
2020-03-27,83.81,,482017.0
2020-03-30,90.29,,435369.0
2020-03-31,89.35,,531024.0
2020-04-01,86.02,,296454.0
2020-04-02,85.96,,455721.0
2020-04-03,84.0,,370613.0
2020-04-06,90.57,,503240.0
2020-04-07,90.93,,378002.0
2020-04-08,93.92,,328512.0
2020-04-09,97.08,,399311.0
2020-04-13,92.16,,233958.0
2020-04-14,93.83,,239697.0
2020-04-15,90.74,,441407.0
2020-04-16,91.66,,293985.0
2020-04-17,92.75,,256174.0
2020-04-20,96.75,,856350.0
2020-04-21,95.93,,475521.0
2020-04-22,96.11,,436386.0
2020-04-23,94.83,,347570.0
2020-04-24,93.93,,377042.0
2020-04-27,102.39,,457659.0
2020-04-28,101.35,,274579.0
2020-04-29,100.25,,236573.0
2020-04-30,97.25,,730612.0
2020-05-01,96.31,,506241.0
2020-05-04,96.98,,324286.0
2020-05-05,95.73,,332492.0
2020-05-06,95.03,,234008.0
2020-05-07,95.64,,285187.0
2020-05-08,97.7,,259739.0
2020-05-11,96.48,,343952.0
2020-05-12,94.12,,233339.0
2020-05-13,92.59,,267134.0
2020-05-14,92.63,,246163.0
2020-05-15,91.67,,476362.0
2020-05-18,94.32,,304487.0
2020-05-19,93.9,,214667.0
2020-05-20,94.58,,146204.0
2020-05-21,95.26,,233923.0
2020-05-22,95.27,,151218.0
2020-05-26,99.72,,332201.0
2020-05-27,102.72,,290412.0
2020-05-28,101.77,,233602.0
2020-05-29,101.56,,215318.0
2020-06-01,101.59,,276997.0
2020-06-02,102.24,,224886.0
2020-06-03,103.45,,196644.0
2020-06-04,102.31,,182483.0
2020-06-05,103.57,,235497.0
2020-06-08,103.75,,244697.0
2020-06-09,102.64,,292106.0
2020-06-10,101.81,,366637.0
2020-06-11,94.42,,376921.0
2020-06-12,95.53,,247251.0
2020-06-15,95.58,,235865.0
2020-06-16,97.56,,252957.0
2020-06-17,97.08,,208807.0
2020-06-18,97.16,,217800.0
2020-06-19,97.77,,303717.0
2020-06-22,97.72,,241927.0
2020-06-23,97.61,,228314.0
2020-06-24,96.11,,433916.0
2020-06-25,97.77,,263614.0
2020-06-26,97.89,,924172.0
2020-06-29,99.42,,189285.0
2020-06-30,102.15,,421798.0
2020-07-01,102.65,,247922.0
2020-07-02,105.14,,271425.0
2020-07-06,105.43,,330868.0
2020-07-07,105.32,,346528.0
2020-07-08,103.1,,205938.0
2020-07-09,103.93,,307154.0
2020-07-10,105.12,,244485.0
2020-07-13,103.6,,288988.0
2020-07-14,106.48,,193586.0
2020-07-15,108.07,,326948.0
2020-07-16,107.41,,252948.0
2020-07-17,109.57,,248994.0
2020-07-20,109.46,,183176.0
2020-07-21,108.35,,394270.0
2020-07-22,108.67,,414622.0
2020-07-23,108.61,,286702.0
2020-07-24,109.02,,244683.0
2020-07-27,110.02,,281806.0
2020-07-28,108.58,,208599.0
2020-07-29,109.34,,251179.0
2020-07-30,108.44,,359798.0
2020-07-31,105.73,,668147.0
2020-08-03,109.19,,292930.0
2020-08-04,109.15,,233133.0
2020-08-05,108.89,,164691.0
2020-08-06,108.19,,246500.0
2020-08-07,109.78,,202340.0
2020-08-10,107.53,,204743.0
2020-08-11,107.27,,214088.0
2020-08-12,108.62,,171798.0
2020-08-13,109.05,,213844.0
2020-08-14,109.02,,134592.0
2020-08-17,108.78,,160466.0
2020-08-18,108.41,,171491.0
2020-08-19,108.22,,145618.0
2020-08-20,108.08,,159427.0
2020-08-21,108.33,,199186.0
2020-08-24,109.64,,223991.0
2020-08-25,108.66,,114372.0
2020-08-26,109.13,,119970.0
2020-08-27,110.58,,209790.0
2020-08-28,108.66,,295204.0
2020-08-31,108.92,,182518.0
2020-09-01,110.03,,133878.0
2020-09-02,112.79,,153795.0
2020-09-03,109.7,,227201.0
2020-09-04,109.25,,224216.0
2020-09-08,106.59,,164553.0
2020-09-09,108.42,,154009.0
2020-09-10,107.72,,253479.0
2020-09-11,108.89,,124582.0
2020-09-14,109.61,,129030.0
2020-09-15,108.86,,125633.0
2020-09-16,108.3,,232032.0
2020-09-17,106.49,,354527.0
2020-09-18,105.57,,555730.0
2020-09-21,103.98,,251540.0
2020-09-22,104.86,,292397.0
2020-09-23,102.67,,172252.0
2020-09-24,102.79,,274253.0
2020-09-25,102.63,,254104.0
2020-09-28,102.89,,229980.0
2020-09-29,103.15,,230014.0
2020-09-30,103.73,,200458.0
2020-10-01,104.23,,166029.0
2020-10-02,103.38,,166847.0
2020-10-05,105.08,,151297.0
2020-10-06,105.09,,224032.0
2020-10-07,105.51,,173241.0
2020-10-08,107.05,,137985.0
2020-10-09,107.34,,148670.0
2020-10-12,108.57,,138090.0
2020-10-13,108.09,,158965.0
2020-10-14,106.97,,98936.0
2020-10-15,106.87,,116909.0
2020-10-16,106.88,,97693.0
2020-10-19,105.68,,113692.0
2020-10-20,107.49,,192601.0
2020-10-21,108.27,,133709.0
2020-10-22,108.84,,164109.0
2020-10-23,108.88,,105626.0
2020-10-26,107.99,,114129.0
2020-10-27,106.54,,125010.0
2020-10-28,103.23,,170486.0
2020-10-29,103.83,,279074.0
2020-10-30,104.98,,377937.0
2020-11-02,109.08,,215628.0
2020-11-03,110.45,,242374.0
2020-11-04,109.94,,150632.0
2020-11-05,113.8,,185537.0
2020-11-06,114.49,,220256.0
2020-11-09,114.06,,336523.0
2020-11-10,118.5,,326054.0
2020-11-11,116.16,,194744.0
2020-11-12,115.16,,126347.0
2020-11-13,115.96,,126297.0
2020-11-16,117.75,,207366.0
2020-11-17,118.25,,191210.0
2020-11-18,117.26,,173077.0
2020-11-19,118.12,,213914.0
2020-11-20,118.7,,237343.0
2020-11-23,117.75,,182304.0
2020-11-24,118.77,,237200.0
2020-11-25,117.18,,136061.0
2020-11-27,118.13,,67786.0
2020-11-30,117.21,,204620.0
2020-12-01,118.71,,165833.0
2020-12-02,117.15,,133784.0
2020-12-03,116.76,,138744.0
2020-12-04,118.57,,144615.0
2020-12-07,119.52,,114974.0
2020-12-08,120.08,,162096.0
2020-12-09,120.42,,144845.0
2020-12-10,121.36,,247103.0
2020-12-11,121.34,,165830.0
2020-12-14,119.3,,205832.0
2020-12-15,121.15,,158187.0
2020-12-16,121.99,,265379.0
2020-12-17,124.03,,297739.0
2020-12-18,124.99,,656308.0
2020-12-21,125.78,,211708.0
2020-12-22,125.39,,257330.0
2020-12-23,125.42,,191640.0
2020-12-24,126.59,,84186.0
2020-12-28,126.57,,100420.0
2020-12-29,126.2,,94394.0
2020-12-30,127.28,,98987.0
2020-12-31,127.78,,169818.0
2021-01-04,124.89,,315746.0
2021-01-05,124.59,,260524.0
2021-01-06,128.61,,289314.0
2021-01-07,130.59,,192396.0
2021-01-08,129.96,,140578.0
2021-01-11,129.68,,115313.0
2021-01-12,129.04,,199210.0
2021-01-13,129.47,,245041.0
2021-01-14,130.34,,181211.0
2021-01-15,129.72,,149314.0
2021-01-19,128.15,,222324.0
2021-01-20,131.51,,254127.0
2021-01-21,129.0,,208315.0
2021-01-22,129.08,,227833.0
2021-01-25,130.46,,187115.0
2021-01-26,130.1,,125884.0
2021-01-27,124.5,,186869.0
2021-01-28,126.5,,165759.0
2021-01-29,124.22,,377788.0
2021-02-01,125.34,,184722.0
2021-02-02,128.19,,192951.0
2021-02-03,127.81,,134745.0
2021-02-04,129.25,,251134.0
2021-02-05,131.91,,177537.0
2021-02-08,133.23,,171207.0
2021-02-09,133.42,,182995.0
2021-02-10,134.5,,151058.0
2021-02-11,134.22,,195826.0
2021-02-12,135.88,,105250.0
2021-02-16,134.85,,175318.0
2021-02-17,134.46,,208088.0
2021-02-18,132.24,,208657.0
2021-02-19,123.49,,492876.0
2021-02-22,120.35,,347080.0
2021-02-23,119.53,,490743.0
2021-02-24,120.01,,213046.0
2021-02-25,121.55,,378645.0
2021-02-26,121.32,,386457.0
2021-03-01,121.85,,282990.0
2021-03-02,121.6,,367730.0
2021-03-03,122.3,,220359.0
2021-03-04,121.65,,493726.0
2021-03-05,125.34,,204653.0
2021-03-08,128.96,,230559.0
2021-03-09,128.94,,251524.0
2021-03-10,130.63,,150688.0
2021-03-11,130.63,,169130.0
2021-03-12,132.02,,218990.0
2021-03-15,133.38,,356177.0
2021-03-16,131.75,,280669.0
2021-03-17,132.53,,180865.0
2021-03-18,132.76,,174119.0
2021-03-19,130.56,,614976.0
2021-03-22,132.84,,247672.0
2021-03-23,132.02,,330053.0
2021-03-24,133.09,,300817.0
2021-03-25,133.72,,265561.0
2021-03-26,136.07,,286952.0
2021-03-29,136.02,,272170.0
2021-03-30,134.33,,247853.0
2021-03-31,132.92,,408616.0
2021-04-01,135.12,,228248.0
2021-04-05,135.94,,196076.0
2021-04-06,137.22,,206053.0
2021-04-07,134.84,,188018.0
2021-04-08,134.93,,158656.0
2021-04-09,136.45,,151363.0
2021-04-12,137.46,,100771.0
2021-04-13,137.58,,160844.0
2021-04-14,137.06,,185106.0
2021-04-15,138.45,,184816.0
2021-04-16,139.33,,322614.0
2021-04-19,140.96,,203887.0
2021-04-20,141.67,,190327.0
2021-04-21,143.19,,191179.0
2021-04-22,141.32,,278387.0
2021-04-23,142.7,,188140.0
2021-04-26,142.17,,193619.0
2021-04-27,143.27,,214894.0
2021-04-28,142.75,,191963.0
2021-04-29,142.55,,226525.0
2021-04-30,142.44,,365740.0
2021-05-03,144.09,,212914.0
2021-05-04,146.65,,206816.0
2021-05-05,145.81,,186429.0
2021-05-06,148.15,,240595.0
2021-05-07,149.19,,187145.0
2021-05-10,147.11,,226253.0
2021-05-11,145.62,,299711.0
2021-05-12,143.24,,164073.0
2021-05-13,146.25,,308949.0
2021-05-14,145.17,,173978.0
2021-05-17,144.74,,136816.0
2021-05-18,142.55,,172514.0
2021-05-19,141.17,,161446.0
2021-05-20,141.37,,123190.0
2021-05-21,141.26,,134933.0
2021-05-24,140.89,,143001.0
2021-05-25,139.36,,199213.0
2021-05-26,139.49,,113557.0
2021-05-27,138.4,,172581.0
2021-05-28,138.94,,146880.0
2021-06-01,138.51,,173020.0
2021-06-02,137.29,,282830.0
2021-06-03,137.03,,224482.0
2021-06-04,137.19,,151875.0
2021-06-07,134.15,,184818.0
2021-06-08,134.41,,182942.0
2021-06-09,133.8,,174063.0
2021-06-10,136.62,,216128.0
2021-06-11,137.46,,152910.0
2021-06-14,135.12,,223570.0
2021-06-15,135.96,,214218.0
2021-06-16,134.25,,168411.0
2021-06-17,133.14,,157887.0
2021-06-18,131.73,,280352.0
2021-06-21,133.21,,229802.0
2021-06-22,133.26,,207445.0
2021-06-23,131.8,,227600.0
2021-06-24,131.81,,142325.0
2021-06-25,132.55,,635000.0
2021-06-28,132.34,,218570.0
2021-06-29,131.91,,151928.0
2021-06-30,132.47,,186478.0
2021-07-01,132.75,,225540.0
2021-07-02,132.04,,121875.0
2021-07-06,131.68,,273437.0
2021-07-07,132.65,,219856.0
2021-07-08,130.9,,154194.0
2021-07-09,132.81,,229787.0
2021-07-12,132.05,,174250.0
2021-07-13,130.13,,223620.0
2021-07-14,130.07,,179871.0
2021-07-15,130.19,,155460.0
2021-07-16,130.67,,177671.0
2021-07-19,128.76,,293041.0
2021-07-20,128.65,,294000.0
2021-07-21,127.69,,157987.0
2021-07-22,126.3,,203588.0
2021-07-23,127.87,,175187.0
2021-07-26,128.35,,191033.0
2021-07-27,128.39,,150478.0
2021-07-28,129.28,,165089.0
2021-07-29,130.68,,315950.0
2021-07-30,120.55,,842429.0
2021-08-02,121.54,,453619.0
2021-08-03,120.64,,418304.0
2021-08-04,118.78,,294483.0
2021-08-05,119.51,,158039.0
2021-08-06,120.44,,184593.0
2021-08-09,122.09,,297217.0
2021-08-10,121.21,,200446.0
2021-08-11,123.64,,305931.0
2021-08-12,124.69,,247773.0
2021-08-13,125.06,,174251.0
2021-08-16,124.89,,106271.0
2021-08-17,125.02,,213098.0
2021-08-18,124.06,,110842.0
2021-08-19,124.42,,94039.0
2021-08-20,125.53,,118563.0
2021-08-23,124.97,,111239.0
2021-08-24,124.97,,85735.0
2021-08-25,126.14,,115978.0
2021-08-26,124.67,,133592.0
2021-08-27,126.54,,180679.0
2021-08-30,127.24,,122282.0
2021-08-31,126.81,,154055.0
2021-09-01,127.02,,135818.0
2021-09-02,127.15,,165545.0
2021-09-03,127.16,,112691.0
2021-09-07,123.09,,131603.0
2021-09-08,122.89,,325204.0
2021-09-09,120.64,,227704.0
2021-09-10,117.85,,340991.0
2021-09-13,116.77,,286032.0
2021-09-14,116.59,,184072.0
2021-09-15,116.64,,206621.0
2021-09-16,114.31,,176805.0
2021-09-17,113.24,,568376.0
2021-09-20,113.87,,289162.0
2021-09-21,112.07,,240573.0
2021-09-22,112.29,,235024.0
2021-09-23,113.02,,162149.0
2021-09-24,112.37,,186267.0
2021-09-27,112.34,,206565.0
2021-09-28,112.04,,230812.0
2021-09-29,112.39,,237584.0
2021-09-30,111.36,,314861.0
2021-10-01,113.59,,259773.0
2021-10-04,114.3,,241877.0
2021-10-05,113.67,,249236.0
2021-10-06,115.11,,240857.0
2021-10-07,116.27,,252691.0
2021-10-08,116.52,,217866.0
2021-10-11,116.58,,182791.0
2021-10-12,116.5,,99752.0
2021-10-13,119.4,,266429.0
2021-10-14,120.02,,215429.0
2021-10-15,120.23,,193182.0
2021-10-18,119.83,,221111.0
2021-10-19,119.56,,143261.0
2021-10-20,120.17,,179992.0
2021-10-21,121.08,,139686.0
2021-10-22,119.78,,131577.0
2021-10-25,119.8,,216361.0
2021-10-26,119.28,,188493.0
2021-10-27,117.71,,202222.0
2021-10-28,118.37,,218722.0
2021-10-29,113.17,,696439.0
2021-11-01,117.57,,581770.0
2021-11-02,119.79,,275548.0
2021-11-03,120.79,,290007.0
2021-11-04,120.94,,326327.0
2021-11-05,123.89,,335702.0
2021-11-08,123.03,,254995.0
2021-11-09,122.75,,170687.0
2021-11-10,121.97,,146979.0
2021-11-11,122.22,,131765.0
2021-11-12,123.88,,177537.0
2021-11-15,124.71,,190839.0
2021-11-16,126.63,,402912.0
2021-11-17,126.84,,267262.0
2021-11-18,122.03,,258834.0
2021-11-19,122.54,,212760.0
2021-11-22,121.19,,274477.0
2021-11-23,122.09,,155839.0
2021-11-24,120.57,,220375.0
2021-11-26,119.0,,166980.0
2021-11-29,118.26,,228054.0
2021-11-30,111.98,,593838.0
2021-12-01,109.18,,785990.0
2021-12-02,112.04,,578317.0
2021-12-03,111.19,,368281.0
2021-12-06,112.61,,615408.0
2021-12-07,112.67,,377871.0
2021-12-08,113.21,,210139.0
2021-12-09,111.92,,193599.0
2021-12-10,112.13,,168860.0
2021-12-13,111.0,,217934.0
2021-12-14,109.34,,292575.0
2021-12-15,110.76,,309782.0
2021-12-16,111.08,,242642.0
2021-12-17,108.28,,800524.0
2021-12-20,106.06,,291938.0
2021-12-21,107.78,,301775.0
2021-12-22,107.78,,379823.0
2021-12-23,108.72,,223847.0
2021-12-27,112.28,,352150.0
2021-12-28,113.83,,438677.0
2021-12-29,114.49,,953008.0
2021-12-30,114.27,,237166.0
2021-12-31,114.87,,226442.0
2022-01-03,113.21,,234856.0
2022-01-04,113.77,,337335.0
2022-01-05,115.45,,367631.0
2022-01-06,114.94,,231889.0
2022-01-07,116.07,,335119.0
2022-01-10,114.44,,398428.0
2022-01-11,114.91,,135493.0
2022-01-12,113.69,,206649.0
2022-01-13,114.06,,193217.0
2022-01-14,113.57,,178973.0
2022-01-18,112.76,,232533.0
2022-01-19,113.81,,252601.0
2022-01-20,111.22,,297725.0
2022-01-21,108.77,,351834.0
2022-01-24,109.42,,329256.0
2022-01-25,108.42,,469961.0
2022-01-26,107.58,,1542526.0
2022-01-27,106.04,,263932.0
2022-01-28,107.44,,323081.0
2022-01-31,109.69,,486256.0
2022-02-01,109.87,,214033.0
2022-02-02,109.39,,363591.0
2022-02-03,107.96,,167719.0
2022-02-04,108.03,,242710.0
2022-02-07,107.51,,263267.0
2022-02-08,108.82,,204194.0
2022-02-09,109.32,,295864.0
2022-02-10,107.38,,267089.0
2022-02-11,106.48,,230590.0
2022-02-14,106.87,,266626.0
2022-02-15,106.87,,263033.0
2022-02-16,107.47,,271428.0
2022-02-17,108.38,,362421.0
2022-02-18,111.21,,462347.0
2022-02-22,111.87,,437171.0
2022-02-23,110.46,,321074.0
2022-02-24,109.64,,349261.0
2022-02-25,113.74,,260057.0
2022-02-28,114.65,,316349.0
2022-03-01,111.87,,325723.0
2022-03-02,111.15,,435089.0
2022-03-03,112.1,,196105.0
2022-03-04,112.96,,206665.0
2022-03-07,109.29,,337261.0
2022-03-08,102.96,,382823.0
2022-03-09,106.04,,224768.0
2022-03-10,105.03,,223236.0
2022-03-11,105.07,,237053.0
2022-03-14,107.29,,173771.0
2022-03-15,109.58,,199537.0
2022-03-16,109.76,,266775.0
2022-03-17,111.18,,163294.0
2022-03-18,110.51,,286789.0
2022-03-21,111.43,,309051.0
2022-03-22,110.44,,294056.0
2022-03-23,107.44,,256834.0
2022-03-24,108.62,,210144.0
2022-03-25,110.01,,148002.0
2022-03-28,109.26,,167286.0
2022-03-29,112.09,,184696.0
2022-03-30,111.59,,156595.0
2022-03-31,110.27,,211182.0
2022-04-01,111.79,,400825.0
2022-04-04,111.18,,286349.0
2022-04-05,110.5,,225256.0
2022-04-06,111.11,,194314.0
2022-04-07,112.77,,331904.0
2022-04-08,114.18,,305272.0
2022-04-11,111.73,,207964.0
2022-04-12,109.78,,187436.0
2022-04-13,110.65,,120171.0
2022-04-14,110.17,,163341.0
2022-04-18,106.78,,137099.0
2022-04-19,110.0,,221601.0
2022-04-20,112.27,,141190.0
2022-04-21,111.71,,178179.0
2022-04-22,109.39,,179875.0
2022-04-25,108.17,,379644.0
2022-04-26,103.73,,295254.0
2022-04-27,104.25,,231456.0
2022-04-28,105.25,,289153.0
2022-04-29,107.98,,640172.0
2022-05-02,106.54,,456988.0
2022-05-03,106.98,,225358.0
2022-05-04,109.9,,346897.0
2022-05-05,105.95,,179038.0
2022-05-06,104.38,,331810.0
2022-05-09,100.16,,276713.0
2022-05-10,97.69,,411834.0
2022-05-11,97.21,,297836.0
2022-05-12,99.6,,389328.0
2022-05-13,100.66,,226883.0
2022-05-16,101.48,,202521.0
2022-05-17,102.11,,311156.0
2022-05-18,97.22,,325904.0
2022-05-19,96.64,,357006.0
2022-05-20,92.87,,796300.0
2022-05-23,97.37,,545172.0
2022-05-24,98.1,,567448.0
2022-05-25,97.6,,493448.0
2022-05-26,99.68,,188191.0
2022-05-27,102.04,,178016.0
2022-05-31,100.24,,306050.0
2022-06-01,100.4,,313932.0
2022-06-02,102.98,,145425.0
2022-06-03,101.95,,139814.0
2022-06-06,102.4,,207415.0
2022-06-07,103.33,,132946.0
2022-06-08,100.86,,157655.0
2022-06-09,98.98,,193753.0
2022-06-10,98.35,,266773.0
2022-06-13,95.16,,252091.0
2022-06-14,92.67,,227948.0
2022-06-15,93.52,,283340.0
2022-06-16,87.92,,620352.0
2022-06-17,90.65,,458524.0
2022-06-21,90.34,,236117.0
2022-06-22,91.61,,228179.0
2022-06-23,92.08,,152130.0
2022-06-24,95.77,,327255.0
2022-06-27,96.72,,185180.0
2022-06-28,95.85,,280199.0
2022-06-29,96.54,,220930.0
2022-06-30,96.36,,205874.0
2022-07-01,97.64,,262328.0
2022-07-05,96.07,,230164.0
2022-07-06,95.79,,286394.0
2022-07-07,96.26,,221222.0
2022-07-08,93.16,,208051.0
2022-07-11,92.7,,186923.0
2022-07-12,93.66,,284288.0
2022-07-13,93.82,,202511.0
2022-07-14,92.45,,199805.0
2022-07-15,93.16,,195284.0
2022-07-18,91.25,,179934.0
2022-07-19,94.18,,635394.0
2022-07-20,94.97,,458852.0
2022-07-21,96.63,,138850.0
2022-07-22,96.75,,214586.0
2022-07-25,97.07,,267351.0
2022-07-26,97.36,,262182.0
2022-07-27,99.56,,229187.0
2022-07-28,101.35,,249802.0
2022-07-29,101.29,,424421.0
2022-08-01,101.73,,276995.0
2022-08-02,100.12,,209714.0
2022-08-03,101.17,,260719.0
2022-08-04,99.97,,292585.0
2022-08-05,99.18,,174609.0
2022-08-08,100.8,,219293.0
2022-08-09,100.8,,249223.0
2022-08-10,103.3,,152928.0
2022-08-11,103.16,,171052.0
2022-08-12,104.61,,201254.0
2022-08-15,105.44,,146459.0
2022-08-16,105.6,,187650.0
2022-08-17,104.56,,173063.0
2022-08-18,104.56,,197318.0
2022-08-19,103.69,,253376.0
2022-08-22,101.45,,178259.0
2022-08-23,100.42,,177978.0
2022-08-24,100.98,,182976.0
2022-08-25,102.5,,132946.0
2022-08-26,97.94,,152002.0
2022-08-29,97.53,,146849.0
2022-08-30,97.58,,148892.0
2022-08-31,96.34,,180329.0
2022-09-01,96.15,,212243.0
2022-09-02,94.96,,205950.0
2022-09-06,93.86,,159334.0
2022-09-07,96.77,,164217.0
2022-09-08,98.42,,137922.0
2022-09-09,99.94,,197127.0
2022-09-12,100.64,,154450.0
2022-09-13,97.55,,271706.0
2022-09-14,97.11,,250694.0
2022-09-15,98.73,,423013.0
2022-09-16,96.17,,579386.0
2022-09-19,98.06,,194369.0
2022-09-20,94.71,,157490.0
2022-09-21,93.2,,173491.0
2022-09-22,91.65,,199227.0
2022-09-23,91.61,,274902.0
2022-09-26,90.94,,363989.0
2022-09-27,89.59,,238588.0
2022-09-28,91.77,,237012.0
2022-09-29,90.3,,206398.0
2022-09-30,88.56,,471485.0
2022-10-03,90.97,,274207.0
2022-10-04,92.76,,262850.0
2022-10-05,91.71,,201289.0
2022-10-06,91.27,,202122.0
2022-10-07,87.51,,118995.0
2022-10-10,87.9,,177259.0
2022-10-11,88.27,,369763.0
2022-10-12,86.9,,147367.0
2022-10-13,88.09,,236982.0
2022-10-14,88.61,,319273.0
2022-10-17,90.85,,344926.0
2022-10-18,92.81,,281332.0
2022-10-19,91.74,,359450.0
2022-10-20,89.6,,185551.0
2022-10-21,91.05,,176398.0
2022-10-24,91.42,,158470.0
2022-10-25,93.12,,292477.0
2022-10-26,93.0,,271850.0
2022-10-27,93.0,,216658.0
2022-10-28,95.04,,445333.0
2022-10-31,93.06,,372894.0
2022-11-01,91.13,,301254.0
2022-11-02,88.67,,268420.0
2022-11-03,88.62,,278303.0
2022-11-04,92.68,,209127.0
2022-11-07,94.4,,180746.0
2022-11-08,94.26,,153120.0
2022-11-09,93.03,,165300.0
2022-11-10,96.24,,265971.0
2022-11-11,98.16,,292552.0
2022-11-14,98.31,,238446.0
2022-11-15,98.6,,272476.0
2022-11-16,98.83,,139311.0
2022-11-17,98.52,,162690.0
2022-11-18,99.95,,213199.0
2022-11-21,99.05,,193315.0
2022-11-22,99.91,,284010.0
2022-11-23,100.1,,202079.0
2022-11-25,99.82,,114719.0
2022-11-28,97.41,,208494.0
2022-11-29,97.22,,181438.0
2022-11-30,100.05,,297906.0
2022-12-01,101.0,,156570.0
2022-12-02,101.96,,167366.0
2022-12-05,100.61,,153805.0
2022-12-06,100.91,,247750.0
2022-12-07,100.21,,152844.0
2022-12-08,101.84,,190764.0
2022-12-09,101.97,,316746.0
2022-12-12,101.99,,209108.0
2022-12-13,102.12,,328373.0
2022-12-14,102.15,,302454.0
2022-12-15,101.56,,229997.0
2022-12-16,101.35,,540619.0
2022-12-19,100.17,,269761.0
2022-12-20,101.03,,193278.0
2022-12-21,104.55,,388504.0
2022-12-22,102.47,,213770.0
2022-12-23,103.92,,161517.0
2022-12-27,104.78,,101728.0
2022-12-28,103.08,,162674.0
2022-12-29,104.7,,128745.0
2022-12-30,103.89,,172340.0
2023-01-03,104.17,,239234.0
2023-01-04,105.14,,217226.0
2023-01-05,106.03,,310027.0
2023-01-06,107.97,,181525.0
2023-01-09,107.24,,161842.0
2023-01-10,107.34,,162998.0
2023-01-11,107.37,,141308.0
2023-01-12,107.41,,179058.0
2023-01-13,107.88,,177702.0
2023-01-17,107.97,,204526.0
2023-01-18,105.88,,118896.0
2023-01-19,105.9,,177398.0
2023-01-20,107.2,,180755.0
2023-01-23,107.27,,165456.0
2023-01-24,106.75,,172566.0
2023-01-25,105.98,,181163.0
2023-01-26,106.7,,139024.0
2023-01-27,106.64,,204294.0
2023-01-30,107.16,,200229.0
2023-01-31,109.55,,630904.0
2023-02-01,111.38,,190891.0
2023-02-02,111.59,,271605.0
2023-02-03,109.71,,284051.0
2023-02-06,107.73,,180382.0
2023-02-07,106.48,,189116.0
2023-02-08,104.85,,138779.0
2023-02-09,103.54,,180195.0
2023-02-10,103.5,,217891.0
2023-02-13,104.09,,184949.0
2023-02-14,104.05,,122473.0
2023-02-15,104.68,,155197.0
2023-02-16,104.98,,372175.0
2023-02-17,110.98,,590720.0
2023-02-21,109.37,,463855.0
2023-02-22,109.01,,257660.0
2023-02-23,108.85,,196443.0
2023-02-24,109.06,,215098.0
2023-02-27,110.98,,215322.0
2023-02-28,111.01,,261479.0
2023-03-01,111.75,,194731.0
2023-03-02,112.87,,205047.0
2023-03-03,114.54,,225357.0
2023-03-06,111.12,,265875.0
2023-03-07,110.96,,247066.0
2023-03-08,109.62,,281690.0
2023-03-09,108.86,,189712.0
2023-03-10,106.85,,201355.0
2023-03-13,106.26,,245480.0
2023-03-14,109.37,,261457.0
2023-03-15,105.67,,256158.0
2023-03-16,106.97,,209153.0
2023-03-17,105.05,,393789.0
2023-03-20,107.07,,146437.0
2023-03-21,107.31,,141240.0
2023-03-22,106.54,,176728.0
2023-03-23,106.01,,156888.0
2023-03-24,107.26,,148787.0
2023-03-27,108.27,,170089.0
2023-03-28,109.31,,189823.0
2023-03-29,110.16,,138685.0
2023-03-30,110.24,,148020.0
2023-03-31,112.48,,206327.0
2023-04-03,112.94,,151094.0
2023-04-04,111.96,,183073.0
2023-04-05,113.37,,249720.0
2023-04-06,113.35,,159279.0
2023-04-10,113.39,,174578.0
2023-04-11,113.34,,121846.0
2023-04-12,112.68,,134313.0
2023-04-13,114.07,,110672.0
2023-04-14,113.49,,233578.0
2023-04-17,114.1,,122358.0
2023-04-18,112.88,,261691.0
2023-04-19,113.0,,252930.0
2023-04-20,113.32,,296826.0
2023-04-21,114.88,,361462.0
2023-04-24,114.69,,229624.0
2023-04-25,112.36,,167516.0
2023-04-26,110.04,,247164.0
2023-04-27,110.86,,361944.0
2023-04-28,112.8,,586715.0
2023-05-01,115.93,,283090.0
2023-05-02,114.77,,359217.0
2023-05-03,114.57,,294338.0
2023-05-04,113.47,,192534.0
2023-05-05,116.37,,171147.0
2023-05-08,116.17,,200362.0
2023-05-09,115.25,,185633.0
2023-05-10,114.29,,227190.0
2023-05-11,113.95,,203949.0
2023-05-12,115.46,,168376.0
2023-05-15,115.25,,148324.0
2023-05-16,112.99,,180808.0
2023-05-17,113.64,,168597.0
2023-05-18,113.66,,94002.0
2023-05-19,113.76,,156874.0
2023-05-22,112.8,,229606.0
2023-05-23,111.85,,155384.0
2023-05-24,109.79,,297833.0
2023-05-25,108.21,,196776.0
2023-05-26,108.83,,210183.0
2023-05-30,108.03,,136076.0
2023-05-31,107.16,,360767.0
2023-06-01,107.61,,170690.0
2023-06-02,108.83,,353036.0
2023-06-05,107.73,,237399.0
2023-06-06,108.99,,266852.0
2023-06-07,110.08,,264132.0
2023-06-08,109.87,,270471.0
2023-06-09,109.48,,295007.0
2023-06-12,110.06,,352968.0
2023-06-13,109.88,,340628.0
2023-06-14,109.83,,225220.0
2023-06-15,110.72,,362582.0
2023-06-16,111.82,,975338.0
2023-06-20,110.38,,297013.0
2023-06-21,108.29,,317906.0
2023-06-22,108.72,,266218.0
2023-06-23,107.5,,366032.0
2023-06-26,108.28,,142333.0
2023-06-27,109.39,,218253.0
2023-06-28,108.19,,204800.0
2023-06-29,109.45,,225865.0
2023-06-30,110.53,,279940.0
2023-07-03,111.21,,85660.0
2023-07-05,107.61,,384164.0
2023-07-06,107.14,,277687.0
2023-07-07,108.46,,333416.0
2023-07-10,109.14,,247988.0
2023-07-11,110.18,,226717.0
2023-07-12,111.54,,199445.0
2023-07-13,111.68,,190322.0
2023-07-14,113.02,,271606.0
2023-07-17,113.93,,234228.0
2023-07-18,113.75,,189137.0
2023-07-19,113.78,,247195.0
2023-07-20,114.0,,175805.0
2023-07-21,114.51,,184341.0
2023-07-24,114.4,,163377.0
2023-07-25,115.23,,250661.0
2023-07-26,115.03,,306926.0
2023-07-27,114.22,,407776.0
2023-07-28,118.86,,513037.0
2023-07-31,116.54,,746502.0
2023-08-01,117.52,,365307.0
2023-08-02,117.32,,329178.0
2023-08-03,115.89,,195935.0
2023-08-04,115.72,,116530.0
2023-08-07,116.37,,140267.0
2023-08-08,116.2,,270087.0
2023-08-09,116.91,,287454.0
2023-08-10,117.31,,216042.0
2023-08-11,117.69,,226544.0
2023-08-14,118.07,,145679.0
2023-08-15,117.17,,248980.0
2023-08-16,116.62,,291140.0
2023-08-17,116.72,,186612.0
2023-08-18,118.37,,443095.0
2023-08-21,118.86,,358766.0
2023-08-22,118.03,,429600.0
2023-08-23,118.47,,305025.0
2023-08-24,120.19,,278430.0
2023-08-25,122.62,,492953.0
2023-08-28,124.49,,331923.0
2023-08-29,126.9,,472394.0
2023-08-30,127.97,,298864.0
2023-08-31,127.64,,305773.0
2023-09-01,127.63,,251989.0
2023-09-05,122.65,,325303.0
2023-09-06,121.49,,291122.0
2023-09-07,120.44,,328552.0
2023-09-08,120.39,,238788.0
2023-09-11,122.09,,333524.0
2023-09-12,121.61,,258007.0
2023-09-13,120.45,,279312.0
2023-09-14,121.84,,217859.0
2023-09-15,121.01,,589390.0
2023-09-18,120.72,,175188.0
2023-09-19,120.39,,218739.0
2023-09-20,119.71,,206240.0
2023-09-21,117.3,,335704.0
2023-09-22,117.76,,341156.0
2023-09-25,119.12,,258777.0
2023-09-26,118.68,,547004.0
2023-09-27,118.6,,362372.0
2023-09-28,120.55,,219290.0
2023-09-29,120.12,,330916.0
2023-10-02,120.13,,244110.0
2023-10-03,117.95,,236345.0
2023-10-04,119.31,,208157.0
2023-10-05,118.83,,466718.0
2023-10-06,121.49,,491688.0
2023-10-09,122.02,,275718.0
2023-10-10,121.62,,322013.0
2023-10-11,122.61,,212866.0
2023-10-12,120.5,,189279.0
2023-10-13,121.05,,324917.0
2023-10-16,121.79,,275211.0
2023-10-17,122.56,,314395.0
2023-10-18,121.86,,287338.0
2023-10-19,120.81,,443939.0
2023-10-20,117.3,,446489.0
2023-10-23,116.58,,379034.0
2023-10-24,118.42,,312066.0
2023-10-25,117.86,,431161.0
2023-10-26,118.92,,576012.0
2023-10-27,116.66,,364005.0
2023-10-30,117.66,,283042.0
2023-10-31,117.76,,422924.0
2023-11-01,118.42,,263820.0
2023-11-02,119.07,,384317.0
2023-11-03,120.84,,278041.0
2023-11-06,120.68,,173407.0
2023-11-07,120.04,,205009.0
2023-11-08,120.61,,175776.0
2023-11-09,119.88,,118494.0
2023-11-10,121.21,,195542.0
2023-11-13,120.02,,183084.0
2023-11-14,123.34,,267352.0
2023-11-15,123.2,,388569.0
2023-11-16,123.04,,216999.0
2023-11-17,123.42,,162669.0
2023-11-20,122.81,,213932.0
2023-11-21,123.4,,160521.0
2023-11-22,124.06,,174790.0
2023-11-24,124.02,,65863.0
2023-11-27,122.49,,358655.0
2023-11-28,121.1,,218009.0
2023-11-29,120.86,,331676.0
2023-11-30,122.38,,290524.0
2023-12-01,123.59,,218230.0
2023-12-04,123.91,,191858.0
2023-12-05,121.48,,177925.0
2023-12-06,121.86,,179394.0
2023-12-07,121.98,,253916.0
2023-12-08,122.81,,259593.0
2023-12-11,123.06,,337976.0
2023-12-12,122.97,,210306.0
2023-12-13,124.08,,424956.0
2023-12-14,122.89,,412923.0
2023-12-15,121.47,,712994.0
2023-12-18,122.54,,240485.0
2023-12-19,121.72,,659096.0
2023-12-20,121.06,,346395.0
2023-12-21,121.4,,421869.0
2023-12-22,121.76,,312025.0
2023-12-26,121.32,,274691.0
2023-12-27,120.77,,283123.0
2023-12-28,120.69,,343533.0
2023-12-29,119.11,,313526.0
2024-01-02,118.37,,313131.0
2024-01-03,120.85,,531678.0
2024-01-04,119.71,,353282.0
2024-01-05,119.69,,422955.0
2024-01-08,119.84,,352384.0
2024-01-09,120.12,,250288.0
2024-01-10,120.68,,279566.0
2024-01-11,122.33,,323072.0
2024-01-12,121.92,,231636.0
2024-01-16,122.3,,257379.0
2024-01-17,122.18,,336783.0
2024-01-18,124.63,,444085.0
2024-01-19,126.29,,417963.0
2024-01-22,126.68,,266190.0
2024-01-23,127.32,,217739.0
2024-01-24,126.27,,294335.0
2024-01-25,126.74,,332246.0
2024-01-26,127.19,,219761.0
2024-01-29,127.74,,187768.0
2024-01-30,127.74,,228344.0
2024-01-31,125.78,,537414.0
2024-02-01,126.4,,298800.0
2024-02-02,126.0,,344843.0
2024-02-05,126.55,,319449.0
2024-02-06,127.03,,369692.0
2024-02-07,127.7,,392672.0
2024-02-08,128.02,,620725.0
2024-02-09,134.86,,650879.0
2024-02-12,133.51,,491253.0
2024-02-13,131.83,,275866.0
2024-02-14,133.07,,334958.0
2024-02-15,130.94,,471417.0
2024-02-16,133.4,,453937.0
2024-02-20,135.59,,373046.0
2024-02-21,135.9,,276273.0
2024-02-22,137.37,,295309.0
2024-02-23,137.26,,190323.0
2024-02-26,137.82,,199224.0
2024-02-27,136.21,,244583.0
2024-02-28,136.31,,189620.0
2024-02-29,136.36,,250582.0
2024-03-01,136.19,,151277.0
2024-03-04,137.86,,260259.0
2024-03-05,138.42,,190151.0
2024-03-06,138.97,,183957.0
2024-03-07,140.55,,250090.0
2024-03-08,138.99,,185195.0
2024-03-11,138.64,,226613.0
2024-03-12,138.31,,242058.0
2024-03-13,137.06,,336723.0
2024-03-14,136.83,,235184.0
2024-03-15,136.9,,599353.0
2024-03-18,135.16,,299728.0
2024-03-19,135.41,,252974.0
2024-03-20,135.87,,219954.0
2024-03-21,137.04,,255837.0
2024-03-22,137.49,,276019.0
2024-03-25,138.86,,316316.0
2024-03-26,139.1,,314240.0
2024-03-27,140.56,,218170.0
2024-03-28,139.79,,247840.0
2024-04-01,138.19,,204383.0
2024-04-02,136.53,,202598.0
2024-04-03,136.78,,258657.0
2024-04-04,137.65,,403637.0
2024-04-05,137.63,,288195.0
2024-04-08,136.41,,312526.0
2024-04-09,136.21,,242550.0
2024-04-10,135.3,,200702.0
2024-04-11,135.03,,265323.0
2024-04-12,133.1,,299176.0
2024-04-15,134.1,,319557.0
2024-04-16,134.49,,281638.0
2024-04-17,134.3,,565361.0
2024-04-18,135.01,,246574.0
2024-04-19,135.24,,276582.0
2024-04-22,136.22,,298792.0
2024-04-23,136.05,,417184.0
2024-04-24,136.32,,559219.0
2024-04-25,136.49,,694402.0
2024-04-26,139.64,,489509.0
2024-04-29,142.69,,676652.0
2024-04-30,140.69,,585121.0
2024-05-01,141.69,,359568.0
2024-05-02,142.23,,356539.0
2024-05-03,143.12,,303145.0
2024-05-06,145.35,,260199.0
2024-05-07,146.03,,392905.0
2024-05-08,147.1,,223501.0
2024-05-09,145.39,,299014.0
2024-05-10,144.8,,186303.0
2024-05-13,144.18,,167323.0
2024-05-14,144.21,,137622.0
2024-05-15,143.59,,211111.0
2024-05-16,143.85,,235337.0
2024-05-17,143.98,,169494.0
2024-05-20,144.48,,163373.0
2024-05-21,144.9,,280401.0
2024-05-22,145.1,,283258.0
2024-05-23,144.03,,171542.0
2024-05-24,144.4,,162221.0
2024-05-28,143.02,,318431.0
2024-05-29,141.15,,229680.0
2024-05-30,142.45,,328072.0
2024-05-31,144.0,,358871.0
2024-06-03,144.47,,264443.0
2024-06-04,144.5,,287808.0
2024-06-05,144.23,,229231.0
2024-06-06,142.27,,197601.0
2024-06-07,141.86,,179120.0
2024-06-10,141.9,,125702.0
2024-06-11,141.81,,147716.0
2024-06-12,142.14,,221319.0
2024-06-13,142.14,,232302.0
2024-06-14,141.06,,141456.0
2024-06-17,142.64,,303775.0
2024-06-18,143.0,,219807.0
2024-06-20,142.12,,199912.0
2024-06-21,143.16,,444015.0
2024-06-24,143.03,,182879.0
2024-06-25,141.17,,194452.0
2024-06-26,140.02,,192427.0
2024-06-27,140.18,,377220.0
2024-06-28,137.12,,435070.0
2024-07-01,134.85,,306404.0
2024-07-02,136.71,,259374.0
2024-07-03,137.53,,143012.0
2024-07-05,137.21,,206970.0
2024-07-08,137.82,,249195.0
2024-07-09,136.35,,238431.0
2024-07-10,137.6,,142003.0
2024-07-11,138.4,,244519.0
2024-07-12,140.9,,263895.0
2024-07-15,139.74,,319875.0
2024-07-16,140.87,,178791.0
2024-07-17,141.17,,242285.0
2024-07-18,142.59,,434172.0
2024-07-19,142.25,,251235.0
2024-07-22,143.5,,235688.0
2024-07-23,142.35,,234507.0
2024-07-24,140.45,,250576.0
2024-07-25,138.25,,558095.0
2024-07-26,143.42,,562787.0
2024-07-29,144.56,,390941.0
2024-07-30,142.51,,411026.0
2024-07-31,143.74,,280580.0
2024-08-01,143.79,,335303.0
2024-08-02,142.45,,213449.0
2024-08-05,137.44,,448325.0
2024-08-06,141.69,,476037.0
2024-08-07,140.36,,353634.0
2024-08-08,142.32,,268478.0
2024-08-09,140.71,,263172.0
2024-08-12,140.05,,221275.0
2024-08-13,141.13,,211944.0
2024-08-14,140.66,,115689.0
2024-08-15,143.77,,277390.0
2024-08-16,143.48,,250646.0
2024-08-19,143.73,,191184.0
2024-08-20,144.87,,387203.0
2024-08-21,146.09,,267296.0
2024-08-22,145.75,,200437.0
2024-08-23,147.2,,221290.0
2024-08-26,146.92,,235517.0
2024-08-27,147.96,,208203.0
2024-08-28,148.3,,248964.0
2024-08-29,149.04,,186940.0
2024-08-30,149.95,,178473.0
2024-09-03,146.8,,362362.0
2024-09-04,147.49,,175836.0
2024-09-05,147.48,,200549.0
2024-09-06,149.14,,319136.0
2024-09-09,148.67,,241501.0
2024-09-10,148.27,,157921.0
2024-09-11,147.6,,177954.0
2024-09-12,148.72,,200338.0
2024-09-13,149.04,,138617.0
2024-09-16,149.75,,182901.0
2024-09-17,149.79,,259948.0
2024-09-18,149.83,,214216.0
2024-09-19,153.66,,412290.0
2024-09-20,152.67,,663299.0
2024-09-23,152.72,,315800.0
2024-09-24,153.39,,246049.0
2024-09-25,153.9,,284083.0
2024-09-26,155.14,,371630.0
2024-09-27,156.65,,354288.0
2024-09-30,156.95,,289783.0
2024-10-01,156.73,,192217.0
2024-10-02,155.51,,186804.0
2024-10-03,155.7,,366992.0
2024-10-04,157.34,,350508.0
2024-10-07,155.45,,223348.0
2024-10-08,155.43,,205904.0
2024-10-09,156.46,,152610.0
2024-10-10,155.98,,168431.0
2024-10-11,158.31,,194324.0
2024-10-14,163.95,,469784.0
2024-10-15,165.44,,397252.0
2024-10-16,162.8,,329983.0
2024-10-17,164.65,,238180.0
2024-10-18,165.39,,171511.0
2024-10-21,163.09,,217905.0
2024-10-22,162.57,,228408.0
2024-10-23,164.41,,318021.0
2024-10-24,163.76,,547270.0
2024-10-25,166.12,,518947.0
2024-10-28,166.31,,349962.0
2024-10-29,165.91,,338096.0
2024-10-30,166.24,,290329.0
2024-10-31,165.12,,329867.0
2024-11-01,166.62,,316189.0
2024-11-04,165.47,,191649.0
2024-11-05,167.52,,206102.0
2024-11-06,170.37,,264104.0
2024-11-07,171.92,,412332.0
2024-11-08,172.97,,309180.0
2024-11-11,173.36,,189082.0
2024-11-12,172.91,,179780.0
2024-11-13,172.71,,168389.0
2024-11-14,171.31,,198168.0
2024-11-15,163.7,,620423.0
2024-11-18,163.9,,384407.0
2024-11-19,164.11,,287519.0
2024-11-20,165.94,,221802.0
2024-11-21,167.09,,205054.0
2024-11-22,168.72,,241646.0
2024-11-25,169.71,,270016.0
2024-11-26,169.25,,140297.0
2024-11-27,168.94,,167101.0
2024-11-29,170.17,,117275.0
2024-12-02,169.97,,170771.0
2024-12-03,169.61,,160048.0
2024-12-04,169.8,,173299.0
2024-12-05,168.31,,244993.0
2024-12-06,168.36,,209211.0
2024-12-09,168.0,,301666.0
2024-12-10,168.12,,287044.0
2024-12-11,169.52,,418487.0
2024-12-12,168.85,,178231.0
2024-12-13,167.41,,153215.0
2024-12-16,164.84,,236086.0
2024-12-17,160.3,,511945.0
2024-12-18,155.42,,468587.0
2024-12-19,156.08,,404719.0
2024-12-20,155.39,,730207.0
2024-12-23,155.73,,194838.0
2024-12-24,156.56,,100461.0
2024-12-26,156.06,,164485.0
2024-12-27,155.36,,145043.0
2024-12-30,153.94,,221672.0
2024-12-31,154.31,,317018.0
2025-01-02,151.37,,239349.0
2025-01-03,152.71,,250625.0
2025-01-06,150.13,,368995.0
2025-01-07,150.64,,361162.0
2025-01-08,151.36,,228608.0
2025-01-10,150.66,,350837.0
2025-01-13,151.1,,349285.0
2025-01-14,151.82,,196901.0
2025-01-15,152.77,,206134.0
2025-01-16,153.62,,346315.0
2025-01-17,153.3,,231860.0
2025-01-21,157.04,,270870.0
2025-01-22,156.28,,279989.0
2025-01-23,156.83,,149811.0
2025-01-24,155.51,,329575.0
2025-01-27,155.67,,317042.0
2025-01-28,155.63,,204226.0
2025-01-29,154.32,,265739.0
2025-01-30,155.34,,274219.0
2025-01-31,154.36,,834143.0
2025-02-03,153.19,,364564.0
2025-02-04,154.91,,302319.0
2025-02-05,155.98,,262496.0
2025-02-06,154.11,,446562.0
2025-02-07,140.84,,1221535.0
2025-02-10,140.94,,621918.0
2025-02-11,139.95,,377346.0
2025-02-12,139.36,,423520.0
2025-02-13,140.43,,665877.0
2025-02-14,142.45,,512842.0
2025-02-18,144.56,,489590.0
2025-02-19,144.7,,330987.0
2025-02-20,144.34,,283104.0
2025-02-21,144.0,,451844.0
2025-02-24,143.27,,353284.0
2025-02-25,145.37,,336733.0
2025-02-26,144.3,,735520.0
2025-02-27,143.29,,262798.0
2025-02-28,144.41,,348605.0
2025-03-03,144.25,,393982.0
2025-03-04,143.6,,490049.0
2025-03-05,146.1,,445078.0
2025-03-06,148.81,,471731.0
2025-03-07,150.44,,480204.0
2025-03-10,148.23,,391054.0
2025-03-11,145.55,,304021.0
2025-03-12,143.69,,299729.0
2025-03-13,142.42,,238382.0
2025-03-14,144.32,,223579.0
2025-03-17,145.5,,225199.0
2025-03-18,143.96,,219899.0
2025-03-19,144.64,,279612.0
2025-03-20,142.86,,332769.0
2025-03-21,142.48,,601908.0
2025-03-24,145.65,,463786.0
2025-03-25,144.87,,325079.0
2025-03-26,146.22,,630399.0
2025-03-27,147.01,,312675.0
2025-03-28,144.59,,239709.0
2025-03-31,146.04,,372528.0
2025-04-01,146.76,,239983.0
2025-04-02,148.19,,247552.0
2025-04-03,146.33,,352871.0
2025-04-04,137.84,,531610.0
2025-04-07,132.31,,629887.0
2025-04-08,131.32,,473826.0
2025-04-09,141.41,,491845.0
2025-04-10,138.42,,308994.0
2025-04-11,141.77,,203037.0
2025-04-14,143.45,,249300.0
2025-04-15,141.6,,250612.0
2025-04-16,142.66,,307676.0
2025-04-17,141.49,,390509.0
2025-04-21,140.24,,291579.0
2025-04-22,143.68,,217760.0
2025-04-23,145.71,,536977.0
2025-04-24,149.12,,424374.0
2025-04-25,146.72,,220414.0
2025-04-28,147.36,,235013.0
2025-04-29,147.96,,359890.0
2025-04-30,147.61,,556153.0
2025-05-01,146.39,,445257.0
2025-05-02,150.11,,431607.0
2025-05-05,149.59,,267534.0
2025-05-06,149.03,,311959.0
2025-05-07,149.5,,318314.0
2025-05-08,151.47,,302474.0
2025-05-09,151.43,,231614.0
2025-05-12,153.63,,352482.0
2025-05-13,151.75,,339421.0
2025-05-14,150.59,,350003.0
2025-05-15,153.06,,278045.0
2025-05-16,155.12,,278549.0
2025-05-19,156.19,,185349.0
2025-05-20,156.64,,388028.0
2025-05-21,154.56,,319757.0
2025-05-22,154.76,,278860.0
2025-05-23,154.05,,260532.0
2025-05-27,156.27,,352751.0
2025-05-28,155.51,,364355.0
2025-05-29,156.44,,232073.0
2025-05-30,156.51,,335054.0
2025-06-02,155.02,,349586.0
2025-06-03,154.37,,397770.0
2025-06-04,148.52,,831908.0
2025-06-05,150.6,,482377.0
2025-06-06,151.42,,264621.0
2025-06-09,149.71,,388153.0
2025-06-10,150.64,,323524.0
2025-06-11,150.03,,380818.0
2025-06-12,152.46,,337227.0
2025-06-13,149.27,,361176.0
2025-06-16,149.8,,346143.0
2025-06-17,147.56,,379728.0
2025-06-18,147.81,,383126.0
2025-06-20,148.41,,570480.0
2025-06-23,151.9,,356353.0
2025-06-24,151.98,,246573.0
2025-06-25,152.04,,264593.0
2025-06-26,152.59,,658213.0
2025-06-27,153.93,,643145.0
2025-06-30,154.54,,315502.0
2025-07-01,157.12,,338300.0
2025-07-02,158.43,,293502.0
2025-07-03,159.15,,234894.0
2025-07-07,159.07,,313895.0
2025-07-08,158.16,,342665.0
2025-07-09,157.84,,252732.0
2025-07-10,156.44,,361373.0
2025-07-11,156.01,,291991.0
2025-07-14,155.67,,276571.0
2025-07-15,152.27,,254182.0
2025-07-16,153.09,,261862.0
2025-07-17,154.14,,397668.0
2025-07-18,154.49,,243090.0
2025-07-21,153.56,,205706.0
2025-07-22,157.28,,449860.0
2025-07-23,159.77,,450489.0
2025-07-24,160.38,,431794.0
2025-07-25,159.55,,296242.0
2025-07-28,157.26,,308508.0
2025-07-29,157.38,,388152.0
2025-07-30,155.35,,580717.0
2025-07-31,155.7,,679671.0
2025-08-01,139.91,,1012131.0
2025-08-04,137.69,,838960.0
2025-08-05,138.78,,540781.0
2025-08-06,137.1,,515224.0
2025-08-07,139.05,,564046.0
2025-08-08,139.31,,428534.0
2025-08-11,138.43,,349454.0
2025-08-12,138.04,,286027.0
2025-08-13,139.99,,729060.0
2025-08-14,136.9,,875662.0
2025-08-15,137.28,,770443.0
2025-08-18,136.45,,529450.0
2025-08-19,138.15,,333078.0
2025-08-20,139.74,,519196.0
2025-08-21,139.2,,270402.0
2025-08-22,139.99,,356513.0
2025-08-25,138.12,,245765.0
2025-08-26,138.27,,442883.0
2025-08-27,138.0,,729075.0
2025-08-28,137.45,,320792.0
2025-08-29,137.83,,370725.0
2025-09-02,134.97,,310547.0
2025-09-03,133.78,,382323.0
2025-09-04,137.02,,401801.0
2025-09-05,137.18,,440764.0
2025-09-08,136.86,,616104.0
2025-09-09,135.61,,637075.0
2025-09-10,134.81,,685091.0
2025-09-11,135.66,,477412.0
2025-09-12,133.79,,261305.0
2025-09-15,133.41,,297974.0
2025-09-16,133.77,,474820.0
2025-09-17,133.21,,377365.0
2025-09-18,133.06,,254826.0
2025-09-19,133.0,,877176.0
2025-09-22,131.28,,402139.0
2025-09-23,130.58,,319731.0
2025-09-24,130.06,,353265.0
2025-09-25,129.38,,388607.0
2025-09-26,130.85,,274384.0
2025-09-29,130.83,,540552.0
2025-09-30,132.22,,310368.0
2025-10-01,132.7,,310064.0
2025-10-02,131.74,,398486.0
2025-10-03,131.78,,402021.0
2025-10-06,130.44,,447037.0
2025-10-07,129.15,,438727.0
2025-10-08,130.17,,361301.0
2025-10-09,129.17,,554209.0
2025-10-10,129.49,,425847.0
2025-10-13,128.78,,311408.0
2025-10-14,128.36,,337367.0
2025-10-15,126.66,,438259.0
2025-10-16,127.72,,352318.0
2025-10-17,127.9,,339669.0
2025-10-20,128.56,,240497.0
2025-10-21,129.13,,311561.0
2025-10-22,128.62,,357471.0
2025-10-23,129.81,,378632.0
2025-10-24,127.92,,489311.0
2025-10-27,127.82,,521621.0
2025-10-28,127.14,,413444.0
2025-10-29,123.35,,651080.0
2025-10-30,123.4,,702489.0
2025-10-31,115.05,,2758240.0
2025-11-03,112.16,,1660988.0
2025-11-04,113.22,,1029128.0
2025-11-05,114.61,,896862.0
2025-11-06,115.19,,880227.0
2025-11-07,115.26,,697194.0
2025-11-10,115.42,,514004.0
2025-11-11,117.31,,484689.0
2025-11-12,117.2,,547496.0
2025-11-13,119.24,,679432.0
2025-11-14,117.65,,521175.0
2025-11-17,118.38,,820233.0
2025-11-18,118.35,,817266.0
2025-11-19,117.04,,598851.0
2025-11-20,117.62,,507254.0
2025-11-21,120.56,,509095.0
2025-11-24,120.51,,740035.0
2025-11-25,122.48,,543630.0
2025-11-26,122.85,,538028.0
2025-11-28,123.79,,315638.0
2025-12-01,122.32,,536822.0
2025-12-02,120.64,,325361.0
2025-12-03,121.1,,543079.0
2025-12-04,121.06,,707954.0
2025-12-05,120.95,,537032.0
2025-12-08,119.11,,496529.0
2025-12-09,114.76,,640249.0
2025-12-10,116.21,,734713.0
2025-12-11,117.05,,389707.0
2025-12-12,120.51,,656379.0
2025-12-15,121.37,,588584.0
2025-12-16,121.87,,644802.0
2025-12-17,122.67,,567215.0
2025-12-18,121.66,,457122.0
2025-12-19,120.43,,1300295.0
2025-12-22,121.78,,527751.0
2025-12-23,121.23,,311654.0
2025-12-24,121.79,,198009.0
2025-12-26,122.29,,305990.0
2025-12-29,122.25,,400152.0
2025-12-30,121.78,,289772.0
2025-12-31,121.0,,314322.0
2026-01-02,121.58,,295058.0
2026-01-05,122.04,,435643.0
2026-01-06,119.6,,777181.0
2026-01-07,119.48,,478475.0
2026-01-08,121.48,,330009.0
2026-01-09,122.89,,429071.0
2026-01-12,124.17,,477225.0
2026-01-13,122.54,,351849.0
2026-01-14,125.89,,611716.0
2026-01-15,124.15,,381006.0
2026-01-16,123.75,,363404.0
2026-01-20,122.86,,275138.0
2026-01-21,124.05,,421042.0
2026-01-22,123.51,,369685.0
2026-01-23,125.04,,429452.0
2026-01-26,125.39,,315032.0
2026-01-27,123.78,,303048.0
2026-01-28,122.74,,347806.0
2026-01-29,122.89,,386008.0
2026-01-30,123.99,,512655.0
2026-02-02,123.87,,489040.0
2026-02-03,123.67,,658703.0
2026-02-04,128.75,,589388.0
2026-02-05,123.5,,2144148.0
2026-02-06,133.83,,1045688.0
2026-02-09,137.99,,1043341.0
2026-02-10,139.69,,622009.0
2026-02-11,139.53,,584253.0
2026-02-12,140.03,,572705.0
2026-02-13,142.1,,471898.0
2026-02-17,141.17,,614678.0
2026-02-18,141.24,,582008.0
2026-02-19,142.68,,525547.0
2026-02-20,144.57,,664455.0
2026-02-23,145.24,,513486.0
2026-02-24,143.66,,429793.0
2026-02-25,142.2,,348947.0
2026-02-26,141.31,,331196.0
2026-02-27,143.23,,344632.0
2026-03-02,142.19,,334991.0
2026-03-03,139.28,,347279.0
2026-03-04,136.56,,388986.0
2026-03-05,134.25,,452280.0
2026-03-06,131.6,,398465.0
2026-03-09,133.27,,545404.0
2026-03-10,131.65,,502931.0
2026-03-11,131.54,,563777.0
2026-03-12,128.38,,620560.0
2026-03-13,128.17,,660585.0
2026-03-16,128.57,,370674.0
2026-03-17,129.02,,276672.0
2026-03-18,123.74,,910517.0
2026-03-19,123.49,,515880.0
2026-03-20,120.58,,1481512.0
2026-03-23,123.66,,455211.0
2026-03-24,123.67,,404980.0
2026-03-25,125.34,,337119.0
2026-03-26,124.21,,442052.0
2026-03-27,121.51,,381341.0
2026-03-30,122.88,,561979.0
2026-03-31,125.54,,557814.0
2026-04-01,126.27,,380184.0
2026-04-02,125.53,,297467.0
2026-04-06,125.53,,461114.0
2026-04-07,125.13,,376845.0
2026-04-08,131.54,,645201.0
2026-04-09,130.92,,424107.0
2026-04-10,131.02,,407429.0
